'Elapsed time','i','ii','iii','avr','avl','avf','v1','v2','v3','v4','v5','v6','vx','vy','vz'
'hh:mm:ss.mmm','mV','mV','mV','mV','mV','mV','mV','mV','mV','mV','mV','mV','mV','mV','mV'
'0:00.000',0.031,-1.149,-1.179,0.558,0.606,-1.164,0.166,0.258,0.573,0.129,-0.383,0.012,-0.342,-0.698,0.009
'0:00.001',0.029,-1.149,-1.177,0.559,0.604,-1.163,0.168,0.259,0.574,0.128,-0.384,0.014,-0.338,-0.699,0.009
'0:00.002',0.030,-1.145,-1.175,0.557,0.603,-1.159,0.166,0.259,0.576,0.129,-0.381,0.015,-0.337,-0.696,0.006
'0:00.003',0.028,-1.147,-1.175,0.559,0.602,-1.161,0.162,0.259,0.576,0.128,-0.382,0.016,-0.336,-0.694,0.007
'0:00.004',0.029,-1.149,-1.179,0.559,0.605,-1.163,0.162,0.258,0.577,0.128,-0.382,0.015,-0.336,-0.693,0.009
'0:00.005',0.033,-1.150,-1.183,0.558,0.609,-1.167,0.166,0.262,0.581,0.131,-0.379,0.019,-0.336,-0.698,0.003
'0:00.006',0.035,-1.151,-1.185,0.558,0.610,-1.167,0.168,0.265,0.583,0.133,-0.377,0.022,-0.335,-0.698,0.000
'0:00.007',0.035,-1.147,-1.183,0.555,0.610,-1.165,0.166,0.264,0.581,0.134,-0.380,0.021,-0.335,-0.688,0.004
'0:00.008',0.034,-1.148,-1.182,0.557,0.609,-1.165,0.164,0.264,0.583,0.134,-0.377,0.024,-0.336,-0.688,0.008
'0:00.009',0.032,-1.148,-1.179,0.558,0.606,-1.164,0.164,0.265,0.586,0.134,-0.376,0.023,-0.335,-0.687,0.008
'0:00.010',0.033,-1.146,-1.179,0.556,0.606,-1.163,0.166,0.266,0.588,0.136,-0.374,0.026,-0.332,-0.685,0.007
'0:00.011',0.035,-1.145,-1.179,0.555,0.608,-1.162,0.165,0.269,0.591,0.139,-0.370,0.031,-0.328,-0.685,0.005
'0:00.012',0.033,-1.143,-1.175,0.554,0.605,-1.159,0.165,0.271,0.591,0.140,-0.370,0.029,-0.329,-0.683,0.003
'0:00.013',0.035,-1.145,-1.181,0.555,0.608,-1.163,0.168,0.273,0.595,0.141,-0.368,0.031,-0.330,-0.691,0.002
'0:00.014',0.036,-1.144,-1.181,0.553,0.609,-1.163,0.166,0.273,0.595,0.143,-0.369,0.032,-0.329,-0.691,0.000
'0:00.015',0.036,-1.141,-1.177,0.552,0.607,-1.159,0.170,0.275,0.597,0.145,-0.365,0.033,-0.329,-0.686,-0.001
'0:00.016',0.038,-1.141,-1.179,0.551,0.609,-1.160,0.170,0.278,0.600,0.148,-0.363,0.035,-0.327,-0.687,0.000
'0:00.017',0.039,-1.137,-1.177,0.549,0.608,-1.157,0.168,0.279,0.599,0.149,-0.363,0.037,-0.324,-0.683,-0.001
'0:00.018',0.043,-1.135,-1.178,0.546,0.611,-1.157,0.169,0.281,0.603,0.151,-0.359,0.040,-0.323,-0.683,-0.002
'0:00.019',0.044,-1.131,-1.175,0.543,0.610,-1.153,0.170,0.282,0.604,0.153,-0.361,0.040,-0.324,-0.684,-0.003
'0:00.020',0.042,-1.131,-1.173,0.544,0.608,-1.151,0.172,0.284,0.606,0.155,-0.360,0.042,-0.324,-0.683,-0.004
'0:00.021',0.042,-1.135,-1.176,0.546,0.609,-1.155,0.169,0.285,0.608,0.156,-0.359,0.042,-0.323,-0.688,-0.006
'0:00.022',0.040,-1.135,-1.175,0.547,0.608,-1.155,0.169,0.284,0.606,0.155,-0.359,0.041,-0.321,-0.688,-0.011
'0:00.023',0.038,-1.136,-1.174,0.549,0.607,-1.155,0.166,0.285,0.609,0.154,-0.360,0.040,-0.319,-0.685,-0.013
'0:00.024',0.035,-1.137,-1.172,0.550,0.604,-1.154,0.165,0.282,0.609,0.154,-0.359,0.040,-0.319,-0.681,-0.009
'0:00.025',0.042,-1.128,-1.169,0.543,0.606,-1.149,0.166,0.287,0.613,0.158,-0.356,0.044,-0.315,-0.676,-0.003
'0:00.026',0.042,-1.127,-1.169,0.543,0.606,-1.149,0.164,0.289,0.617,0.160,-0.355,0.044,-0.315,-0.674,-0.005
'0:00.027',0.041,-1.129,-1.170,0.544,0.606,-1.150,0.166,0.290,0.617,0.163,-0.353,0.046,-0.316,-0.674,-0.009
'0:00.028',0.039,-1.129,-1.169,0.545,0.604,-1.149,0.169,0.295,0.623,0.166,-0.351,0.051,-0.313,-0.676,-0.009
'0:00.029',0.036,-1.131,-1.168,0.547,0.603,-1.150,0.169,0.293,0.622,0.166,-0.352,0.050,-0.312,-0.676,-0.009
'0:00.030',0.036,-1.131,-1.168,0.547,0.603,-1.149,0.168,0.297,0.625,0.170,-0.349,0.053,-0.309,-0.675,-0.012
'0:00.031',0.036,-1.131,-1.167,0.547,0.602,-1.149,0.171,0.299,0.628,0.171,-0.350,0.053,-0.309,-0.676,-0.014
'0:00.032',0.037,-1.133,-1.171,0.548,0.604,-1.152,0.169,0.297,0.626,0.169,-0.352,0.053,-0.310,-0.675,-0.013
'0:00.033',0.035,-1.135,-1.171,0.550,0.603,-1.153,0.169,0.300,0.631,0.173,-0.349,0.056,-0.309,-0.675,-0.013
'0:00.034',0.038,-1.133,-1.171,0.546,0.605,-1.151,0.172,0.306,0.634,0.178,-0.346,0.058,-0.307,-0.674,-0.015
'0:00.035',0.038,-1.131,-1.169,0.546,0.604,-1.151,0.170,0.305,0.636,0.178,-0.346,0.058,-0.306,-0.671,-0.018
'0:00.036',0.035,-1.130,-1.165,0.547,0.600,-1.147,0.172,0.309,0.639,0.180,-0.344,0.059,-0.305,-0.669,-0.019
'0:00.037',0.035,-1.128,-1.163,0.546,0.600,-1.146,0.170,0.312,0.641,0.180,-0.344,0.060,-0.303,-0.669,-0.018
'0:00.038',0.035,-1.124,-1.159,0.544,0.597,-1.141,0.168,0.312,0.643,0.183,-0.346,0.059,-0.303,-0.667,-0.018
'0:00.039',0.035,-1.116,-1.151,0.540,0.594,-1.133,0.169,0.312,0.643,0.185,-0.346,0.060,-0.303,-0.659,-0.019
'0:00.040',0.035,-1.115,-1.149,0.540,0.592,-1.132,0.169,0.312,0.644,0.183,-0.347,0.060,-0.302,-0.659,-0.020
'0:00.041',0.038,-1.112,-1.149,0.537,0.594,-1.131,0.171,0.315,0.645,0.186,-0.346,0.060,-0.301,-0.666,-0.024
'0:00.042',0.041,-1.113,-1.153,0.536,0.597,-1.133,0.170,0.317,0.649,0.189,-0.345,0.064,-0.298,-0.669,-0.028
'0:00.043',0.039,-1.113,-1.153,0.537,0.596,-1.133,0.169,0.319,0.652,0.189,-0.344,0.066,-0.295,-0.665,-0.030
'0:00.044',0.040,-1.104,-1.143,0.532,0.592,-1.123,0.166,0.319,0.653,0.188,-0.344,0.065,-0.293,-0.654,-0.031
'0:00.045',0.038,-1.101,-1.139,0.531,0.589,-1.120,0.166,0.321,0.653,0.191,-0.345,0.066,-0.290,-0.653,-0.029
'0:00.046',0.040,-1.107,-1.147,0.533,0.594,-1.127,0.168,0.325,0.660,0.196,-0.340,0.071,-0.288,-0.661,-0.030
'0:00.047',0.042,-1.111,-1.151,0.534,0.597,-1.131,0.167,0.328,0.665,0.200,-0.337,0.074,-0.286,-0.662,-0.029
'0:00.048',0.043,-1.104,-1.147,0.530,0.595,-1.125,0.170,0.330,0.667,0.202,-0.336,0.075,-0.283,-0.656,-0.027
'0:00.049',0.045,-1.097,-1.143,0.525,0.595,-1.120,0.171,0.334,0.671,0.204,-0.332,0.078,-0.278,-0.646,-0.026
'0:00.050',0.045,-1.100,-1.145,0.527,0.595,-1.123,0.168,0.334,0.673,0.204,-0.333,0.077,-0.278,-0.644,-0.027
'0:00.051',0.040,-1.109,-1.148,0.534,0.594,-1.129,0.165,0.332,0.675,0.204,-0.334,0.078,-0.281,-0.650,-0.030
'0:00.052',0.041,-1.105,-1.145,0.532,0.593,-1.125,0.165,0.335,0.677,0.209,-0.330,0.081,-0.279,-0.647,-0.033
'0:00.053',0.048,-1.097,-1.146,0.524,0.597,-1.121,0.170,0.341,0.684,0.215,-0.326,0.086,-0.275,-0.645,-0.035
'0:00.054',0.049,-1.097,-1.146,0.524,0.598,-1.121,0.172,0.346,0.689,0.218,-0.323,0.089,-0.272,-0.645,-0.036
'0:00.055',0.049,-1.097,-1.145,0.524,0.597,-1.121,0.172,0.348,0.691,0.222,-0.320,0.090,-0.271,-0.644,-0.036
'0:00.056',0.046,-1.100,-1.147,0.526,0.597,-1.123,0.172,0.351,0.695,0.226,-0.318,0.093,-0.268,-0.646,-0.036
'0:00.057',0.045,-1.098,-1.143,0.526,0.594,-1.121,0.170,0.353,0.696,0.229,-0.316,0.097,-0.264,-0.642,-0.036
'0:00.058',0.045,-1.091,-1.137,0.523,0.592,-1.115,0.167,0.353,0.699,0.229,-0.316,0.097,-0.262,-0.638,-0.038
'0:00.059',0.046,-1.089,-1.136,0.521,0.592,-1.113,0.171,0.358,0.703,0.233,-0.313,0.099,-0.261,-0.639,-0.041
'0:00.060',0.049,-1.087,-1.135,0.519,0.592,-1.111,0.174,0.363,0.708,0.238,-0.308,0.103,-0.258,-0.636,-0.042
'0:00.061',0.050,-1.087,-1.137,0.518,0.594,-1.111,0.174,0.367,0.713,0.243,-0.304,0.108,-0.255,-0.635,-0.043
'0:00.062',0.051,-1.087,-1.139,0.517,0.596,-1.113,0.173,0.371,0.717,0.245,-0.302,0.113,-0.252,-0.639,-0.045
'0:00.063',0.052,-1.084,-1.137,0.515,0.595,-1.111,0.174,0.372,0.722,0.246,-0.299,0.115,-0.248,-0.639,-0.048
'0:00.064',0.058,-1.079,-1.136,0.510,0.597,-1.107,0.172,0.376,0.726,0.252,-0.294,0.118,-0.244,-0.635,-0.050
'0:00.065',0.057,-1.075,-1.132,0.509,0.595,-1.103,0.168,0.378,0.729,0.255,-0.292,0.121,-0.241,-0.632,-0.051
'0:00.066',0.056,-1.077,-1.133,0.509,0.595,-1.105,0.172,0.381,0.735,0.260,-0.290,0.123,-0.239,-0.634,-0.054
'0:00.067',0.059,-1.074,-1.133,0.507,0.596,-1.103,0.173,0.384,0.739,0.264,-0.289,0.126,-0.238,-0.632,-0.058
'0:00.068',0.060,-1.073,-1.133,0.506,0.597,-1.103,0.171,0.386,0.742,0.266,-0.289,0.126,-0.236,-0.629,-0.060
'0:00.069',0.064,-1.070,-1.133,0.503,0.599,-1.102,0.170,0.391,0.747,0.271,-0.286,0.130,-0.231,-0.625,-0.061
'0:00.070',0.061,-1.069,-1.130,0.503,0.596,-1.099,0.169,0.394,0.750,0.272,-0.284,0.132,-0.229,-0.622,-0.062
'0:00.071',0.059,-1.067,-1.125,0.504,0.592,-1.096,0.173,0.397,0.755,0.277,-0.281,0.137,-0.227,-0.621,-0.064
'0:00.072',0.059,-1.063,-1.123,0.502,0.591,-1.093,0.175,0.404,0.762,0.282,-0.276,0.144,-0.224,-0.621,-0.065
'0:00.073',0.066,-1.058,-1.125,0.496,0.596,-1.091,0.175,0.409,0.766,0.289,-0.271,0.148,-0.220,-0.620,-0.066
'0:00.074',0.070,-1.055,-1.125,0.492,0.598,-1.090,0.177,0.412,0.772,0.294,-0.268,0.153,-0.216,-0.617,-0.069
'0:00.075',0.068,-1.055,-1.123,0.493,0.596,-1.089,0.178,0.416,0.777,0.297,-0.267,0.155,-0.214,-0.614,-0.071
'0:00.076',0.070,-1.051,-1.121,0.490,0.595,-1.085,0.177,0.419,0.782,0.301,-0.266,0.158,-0.211,-0.609,-0.073
'0:00.077',0.068,-1.054,-1.121,0.493,0.595,-1.088,0.179,0.423,0.787,0.307,-0.262,0.162,-0.207,-0.609,-0.072
'0:00.078',0.068,-1.051,-1.119,0.491,0.594,-1.085,0.178,0.427,0.791,0.312,-0.258,0.165,-0.203,-0.605,-0.070
'0:00.079',0.071,-1.038,-1.110,0.483,0.591,-1.075,0.176,0.430,0.796,0.317,-0.256,0.170,-0.200,-0.603,-0.082
'0:00.080',0.073,-1.034,-1.107,0.480,0.591,-1.071,0.177,0.435,0.801,0.323,-0.251,0.175,-0.195,-0.606,-0.086
'0:00.081',0.077,-1.030,-1.107,0.476,0.592,-1.069,0.176,0.439,0.806,0.328,-0.250,0.178,-0.191,-0.603,-0.083
'0:00.082',0.079,-1.026,-1.105,0.473,0.593,-1.066,0.175,0.442,0.811,0.331,-0.247,0.181,-0.187,-0.600,-0.085
'0:00.083',0.075,-1.029,-1.105,0.476,0.590,-1.067,0.171,0.443,0.814,0.333,-0.245,0.184,-0.183,-0.595,-0.085
'0:00.084',0.071,-1.027,-1.098,0.477,0.585,-1.062,0.172,0.445,0.819,0.339,-0.242,0.190,-0.178,-0.591,-0.088
'0:00.085',0.071,-1.020,-1.092,0.474,0.582,-1.056,0.175,0.450,0.827,0.345,-0.236,0.196,-0.173,-0.589,-0.091
'0:00.086',0.074,-1.016,-1.091,0.470,0.583,-1.054,0.174,0.453,0.832,0.349,-0.234,0.199,-0.171,-0.584,-0.093
'0:00.087',0.079,-1.010,-1.089,0.466,0.584,-1.049,0.174,0.457,0.837,0.353,-0.231,0.202,-0.168,-0.576,-0.100
'0:00.088',0.084,-1.004,-1.087,0.460,0.586,-1.045,0.172,0.461,0.840,0.359,-0.225,0.207,-0.163,-0.574,-0.103
'0:00.089',0.083,-1.001,-1.084,0.459,0.584,-1.042,0.172,0.464,0.845,0.363,-0.220,0.212,-0.159,-0.572,-0.103
'0:00.090',0.080,-1.001,-1.081,0.460,0.581,-1.041,0.173,0.466,0.850,0.367,-0.215,0.218,-0.154,-0.568,-0.104
'0:00.091',0.080,-0.997,-1.076,0.459,0.578,-1.036,0.174,0.469,0.854,0.373,-0.210,0.223,-0.151,-0.568,-0.107
'0:00.092',0.084,-0.985,-1.069,0.450,0.577,-1.026,0.173,0.473,0.861,0.380,-0.204,0.229,-0.145,-0.559,-0.109
'0:00.093',0.089,-0.978,-1.067,0.444,0.579,-1.022,0.176,0.477,0.868,0.389,-0.200,0.234,-0.141,-0.559,-0.114
'0:00.094',0.090,-0.976,-1.065,0.443,0.578,-1.020,0.177,0.481,0.871,0.395,-0.195,0.239,-0.136,-0.559,-0.116
'0:00.095',0.092,-0.969,-1.061,0.438,0.577,-1.015,0.174,0.485,0.876,0.399,-0.189,0.245,-0.129,-0.552,-0.117
'0:00.096',0.094,-0.966,-1.060,0.435,0.577,-1.013,0.172,0.488,0.882,0.405,-0.184,0.251,-0.125,-0.548,-0.118
'0:00.097',0.092,-0.965,-1.058,0.436,0.576,-1.012,0.172,0.491,0.887,0.410,-0.178,0.256,-0.121,-0.547,-0.118
'0:00.098',0.092,-0.959,-1.051,0.432,0.572,-1.005,0.172,0.495,0.892,0.415,-0.174,0.262,-0.116,-0.546,-0.123
'0:00.099',0.096,-0.953,-1.048,0.428,0.573,-1.000,0.171,0.497,0.896,0.420,-0.169,0.268,-0.112,-0.541,-0.125
'0:00.100',0.099,-0.950,-1.048,0.425,0.574,-1.000,0.170,0.497,0.898,0.424,-0.168,0.271,-0.108,-0.540,-0.125
'0:00.101',0.096,-0.944,-1.040,0.423,0.568,-0.992,0.168,0.498,0.900,0.430,-0.165,0.277,-0.102,-0.536,-0.128
'0:00.102',0.095,-0.939,-1.034,0.421,0.565,-0.986,0.166,0.502,0.904,0.434,-0.161,0.281,-0.099,-0.531,-0.129
'0:00.103',0.099,-0.934,-1.034,0.417,0.567,-0.984,0.162,0.504,0.909,0.436,-0.155,0.285,-0.092,-0.527,-0.130
'0:00.104',0.101,-0.930,-1.031,0.414,0.566,-0.981,0.163,0.506,0.912,0.443,-0.148,0.292,-0.085,-0.523,-0.133
'0:00.105',0.102,-0.926,-1.029,0.412,0.566,-0.978,0.165,0.507,0.918,0.447,-0.143,0.296,-0.082,-0.520,-0.138
'0:00.106',0.101,-0.923,-1.024,0.411,0.562,-0.974,0.164,0.511,0.923,0.454,-0.137,0.303,-0.077,-0.518,-0.139
'0:00.107',0.102,-0.918,-1.020,0.408,0.561,-0.969,0.162,0.513,0.927,0.458,-0.132,0.309,-0.070,-0.513,-0.138
'0:00.108',0.105,-0.912,-1.018,0.404,0.561,-0.965,0.161,0.514,0.931,0.464,-0.127,0.314,-0.065,-0.510,-0.139
'0:00.109',0.103,-0.910,-1.014,0.403,0.559,-0.962,0.161,0.516,0.933,0.469,-0.122,0.321,-0.060,-0.504,-0.138
'0:00.110',0.103,-0.908,-1.010,0.402,0.557,-0.959,0.159,0.516,0.938,0.470,-0.120,0.325,-0.058,-0.497,-0.134
'0:00.111',0.102,-0.907,-1.010,0.402,0.556,-0.959,0.159,0.518,0.941,0.474,-0.116,0.329,-0.054,-0.495,-0.136
'0:00.112',0.106,-0.901,-1.008,0.398,0.557,-0.955,0.155,0.521,0.944,0.482,-0.109,0.337,-0.046,-0.492,-0.139
'0:00.113',0.113,-0.893,-1.006,0.390,0.559,-0.950,0.158,0.525,0.950,0.491,-0.100,0.345,-0.042,-0.491,-0.141
'0:00.114',0.112,-0.888,-1.001,0.388,0.557,-0.945,0.159,0.525,0.953,0.494,-0.094,0.351,-0.036,-0.490,-0.141
'0:00.115',0.109,-0.884,-0.994,0.388,0.552,-0.939,0.158,0.527,0.955,0.498,-0.091,0.355,-0.033,-0.485,-0.142
'0:00.116',0.112,-0.882,-0.994,0.385,0.552,-0.938,0.157,0.527,0.955,0.501,-0.087,0.357,-0.030,-0.481,-0.144
'0:00.117',0.114,-0.877,-0.991,0.382,0.552,-0.934,0.156,0.527,0.958,0.505,-0.085,0.363,-0.026,-0.478,-0.143
'0:00.118',0.115,-0.875,-0.990,0.380,0.552,-0.932,0.154,0.528,0.959,0.510,-0.082,0.367,-0.021,-0.480,-0.143
'0:00.119',0.116,-0.871,-0.986,0.377,0.551,-0.928,0.150,0.528,0.961,0.513,-0.076,0.370,-0.018,-0.476,-0.143
'0:00.120',0.117,-0.867,-0.984,0.374,0.551,-0.925,0.148,0.527,0.962,0.515,-0.073,0.376,-0.015,-0.472,-0.144
'0:00.121',0.117,-0.869,-0.985,0.376,0.551,-0.927,0.150,0.526,0.963,0.519,-0.069,0.381,-0.010,-0.470,-0.145
'0:00.122',0.112,-0.867,-0.979,0.377,0.545,-0.922,0.146,0.526,0.964,0.520,-0.067,0.383,-0.007,-0.465,-0.146
'0:00.123',0.109,-0.866,-0.975,0.378,0.542,-0.920,0.144,0.523,0.962,0.520,-0.066,0.385,-0.004,-0.463,-0.146
'0:00.124',0.109,-0.865,-0.974,0.378,0.541,-0.919,0.143,0.520,0.962,0.522,-0.062,0.389,-0.001,-0.458,-0.147
'0:00.125',0.112,-0.860,-0.971,0.373,0.541,-0.915,0.141,0.519,0.962,0.525,-0.060,0.391,0.002,-0.455,-0.146
'0:00.126',0.111,-0.854,-0.965,0.371,0.538,-0.909,0.141,0.518,0.963,0.527,-0.056,0.395,0.004,-0.451,-0.145
'0:00.127',0.110,-0.846,-0.955,0.368,0.532,-0.900,0.135,0.515,0.962,0.528,-0.051,0.398,0.009,-0.447,-0.145
'0:00.128',0.110,-0.847,-0.957,0.368,0.533,-0.901,0.136,0.514,0.962,0.530,-0.049,0.402,0.011,-0.446,-0.144
'0:00.129',0.107,-0.849,-0.955,0.370,0.531,-0.901,0.138,0.510,0.959,0.528,-0.048,0.403,0.009,-0.445,-0.146
'0:00.130',0.111,-0.840,-0.951,0.364,0.531,-0.895,0.135,0.508,0.958,0.528,-0.043,0.405,0.011,-0.442,-0.147
'0:00.131',0.114,-0.842,-0.956,0.364,0.535,-0.899,0.135,0.507,0.959,0.533,-0.037,0.411,0.015,-0.439,-0.143
'0:00.132',0.114,-0.841,-0.955,0.363,0.534,-0.897,0.132,0.505,0.956,0.534,-0.035,0.413,0.016,-0.439,-0.144
'0:00.133',0.117,-0.832,-0.949,0.357,0.533,-0.890,0.131,0.504,0.956,0.536,-0.030,0.416,0.019,-0.436,-0.148
'0:00.134',0.117,-0.832,-0.949,0.357,0.533,-0.890,0.129,0.500,0.954,0.538,-0.027,0.421,0.024,-0.438,-0.151
'0:00.135',0.115,-0.829,-0.945,0.356,0.530,-0.887,0.128,0.496,0.952,0.538,-0.026,0.423,0.025,-0.437,-0.154
'0:00.136',0.119,-0.823,-0.942,0.351,0.530,-0.882,0.126,0.492,0.951,0.540,-0.021,0.426,0.027,-0.430,-0.147
'0:00.137',0.122,-0.817,-0.939,0.347,0.530,-0.877,0.126,0.491,0.949,0.542,-0.017,0.430,0.030,-0.424,-0.140
'0:00.138',0.117,-0.817,-0.934,0.350,0.526,-0.875,0.122,0.486,0.945,0.541,-0.016,0.431,0.032,-0.422,-0.135
'0:00.139',0.116,-0.815,-0.931,0.349,0.523,-0.873,0.120,0.481,0.943,0.541,-0.013,0.432,0.032,-0.420,-0.134
'0:00.140',0.118,-0.810,-0.928,0.346,0.523,-0.870,0.119,0.478,0.940,0.543,-0.012,0.433,0.034,-0.419,-0.133
'0:00.141',0.120,-0.807,-0.927,0.344,0.524,-0.868,0.114,0.471,0.933,0.541,-0.011,0.435,0.034,-0.418,-0.128
'0:00.142',0.121,-0.807,-0.928,0.343,0.525,-0.868,0.114,0.467,0.929,0.540,-0.010,0.435,0.033,-0.414,-0.125
'0:00.143',0.118,-0.806,-0.924,0.344,0.521,-0.865,0.115,0.462,0.926,0.537,-0.009,0.433,0.031,-0.411,-0.124
'0:00.144',0.117,-0.804,-0.920,0.343,0.519,-0.862,0.112,0.457,0.922,0.535,-0.009,0.433,0.032,-0.412,-0.124
'0:00.145',0.117,-0.808,-0.926,0.345,0.522,-0.867,0.110,0.454,0.919,0.535,-0.009,0.433,0.032,-0.418,-0.126
'0:00.146',0.117,-0.808,-0.925,0.345,0.521,-0.867,0.107,0.449,0.913,0.532,-0.009,0.431,0.030,-0.422,-0.124
'0:00.147',0.114,-0.810,-0.924,0.348,0.519,-0.867,0.106,0.444,0.908,0.529,-0.011,0.428,0.028,-0.420,-0.121
'0:00.148',0.113,-0.811,-0.924,0.349,0.518,-0.868,0.104,0.436,0.903,0.528,-0.011,0.429,0.025,-0.420,-0.119
'0:00.149',0.113,-0.815,-0.927,0.351,0.520,-0.871,0.102,0.431,0.895,0.523,-0.015,0.424,0.021,-0.423,-0.117
'0:00.150',0.113,-0.820,-0.932,0.353,0.522,-0.876,0.102,0.424,0.890,0.518,-0.017,0.420,0.018,-0.424,-0.116
'0:00.151',0.108,-0.821,-0.929,0.356,0.519,-0.875,0.100,0.417,0.885,0.513,-0.019,0.418,0.016,-0.423,-0.115
'0:00.152',0.106,-0.826,-0.931,0.360,0.519,-0.878,0.098,0.412,0.878,0.509,-0.022,0.415,0.014,-0.428,-0.113
'0:00.153',0.105,-0.830,-0.935,0.362,0.520,-0.883,0.099,0.408,0.873,0.508,-0.025,0.411,0.009,-0.436,-0.110
'0:00.154',0.102,-0.835,-0.938,0.366,0.520,-0.886,0.102,0.402,0.864,0.503,-0.030,0.406,0.003,-0.438,-0.103
'0:00.155',0.102,-0.842,-0.944,0.369,0.523,-0.893,0.102,0.397,0.858,0.498,-0.032,0.403,-0.002,-0.445,-0.098
'0:00.156',0.102,-0.847,-0.948,0.372,0.525,-0.897,0.102,0.391,0.852,0.493,-0.034,0.399,-0.004,-0.447,-0.095
'0:00.157',0.100,-0.851,-0.951,0.375,0.526,-0.901,0.100,0.384,0.844,0.486,-0.038,0.396,-0.009,-0.449,-0.092
'0:00.158',0.098,-0.857,-0.955,0.380,0.526,-0.906,0.099,0.379,0.836,0.481,-0.045,0.391,-0.015,-0.451,-0.087
'0:00.159',0.097,-0.861,-0.958,0.382,0.527,-0.909,0.098,0.372,0.826,0.474,-0.052,0.383,-0.021,-0.454,-0.087
'0:00.160',0.100,-0.865,-0.964,0.382,0.532,-0.914,0.099,0.365,0.817,0.466,-0.058,0.375,-0.028,-0.461,-0.086
'0:00.161',0.096,-0.870,-0.965,0.387,0.530,-0.917,0.101,0.360,0.809,0.459,-0.063,0.367,-0.035,-0.463,-0.080
'0:00.162',0.087,-0.879,-0.967,0.396,0.527,-0.923,0.100,0.353,0.798,0.449,-0.071,0.358,-0.043,-0.474,-0.079
'0:00.163',0.080,-0.894,-0.974,0.407,0.527,-0.934,0.098,0.343,0.788,0.439,-0.079,0.350,-0.050,-0.483,-0.075
'0:00.164',0.080,-0.902,-0.982,0.411,0.530,-0.942,0.097,0.339,0.783,0.432,-0.084,0.345,-0.054,-0.488,-0.069
'0:00.165',0.080,-0.906,-0.986,0.412,0.533,-0.946,0.102,0.339,0.776,0.427,-0.087,0.342,-0.059,-0.492,-0.068
'0:00.166',0.077,-0.910,-0.988,0.416,0.532,-0.949,0.102,0.327,0.764,0.416,-0.096,0.332,-0.070,-0.491,-0.062
'0:00.167',0.071,-0.918,-0.990,0.423,0.530,-0.954,0.105,0.318,0.755,0.405,-0.105,0.323,-0.078,-0.494,-0.054
'0:00.168',0.066,-0.927,-0.993,0.430,0.529,-0.961,0.105,0.316,0.748,0.400,-0.112,0.316,-0.086,-0.498,-0.051
'0:00.169',0.067,-0.932,-0.999,0.432,0.533,-0.966,0.099,0.308,0.737,0.390,-0.121,0.306,-0.092,-0.505,-0.049
'0:00.170',0.064,-0.943,-1.006,0.439,0.534,-0.974,0.101,0.302,0.728,0.379,-0.129,0.297,-0.100,-0.513,-0.045
'0:00.171',0.059,-0.952,-1.010,0.446,0.534,-0.981,0.102,0.297,0.720,0.368,-0.137,0.288,-0.109,-0.518,-0.042
'0:00.172',0.062,-0.954,-1.016,0.446,0.539,-0.985,0.104,0.292,0.713,0.362,-0.142,0.282,-0.114,-0.525,-0.040
'0:00.173',0.062,-0.959,-1.022,0.449,0.542,-0.990,0.107,0.289,0.707,0.357,-0.148,0.275,-0.123,-0.532,-0.035
'0:00.174',0.059,-0.962,-1.020,0.451,0.540,-0.991,0.110,0.286,0.699,0.351,-0.152,0.269,-0.131,-0.533,-0.034
'0:00.175',0.059,-0.965,-1.024,0.453,0.541,-0.994,0.107,0.281,0.691,0.343,-0.157,0.263,-0.136,-0.530,-0.029
'0:00.176',0.062,-0.969,-1.032,0.453,0.547,-1.000,0.107,0.277,0.682,0.334,-0.165,0.253,-0.143,-0.533,-0.026
'0:00.177',0.060,-0.977,-1.037,0.459,0.548,-1.007,0.110,0.273,0.674,0.326,-0.174,0.244,-0.151,-0.542,-0.025
'0:00.178',0.051,-0.987,-1.038,0.468,0.545,-1.012,0.111,0.268,0.667,0.318,-0.182,0.236,-0.160,-0.551,-0.023
'0:00.179',0.046,-0.992,-1.038,0.473,0.542,-1.015,0.112,0.262,0.660,0.309,-0.191,0.227,-0.169,-0.557,-0.019
'0:00.180',0.039,-1.000,-1.039,0.480,0.539,-1.020,0.113,0.258,0.650,0.302,-0.198,0.220,-0.175,-0.566,-0.019
'0:00.181',0.038,-1.004,-1.042,0.482,0.540,-1.022,0.114,0.255,0.645,0.298,-0.199,0.216,-0.179,-0.573,-0.022
'0:00.182',0.037,-1.007,-1.044,0.484,0.540,-1.025,0.110,0.250,0.638,0.289,-0.206,0.207,-0.186,-0.574,-0.018
'0:00.183',0.034,-1.014,-1.048,0.490,0.540,-1.030,0.112,0.245,0.630,0.279,-0.214,0.198,-0.192,-0.576,-0.008
'0:00.184',0.032,-1.016,-1.048,0.491,0.540,-1.032,0.115,0.241,0.626,0.272,-0.219,0.192,-0.198,-0.577,-0.003
'0:00.185',0.029,-1.020,-1.050,0.495,0.540,-1.035,0.113,0.238,0.619,0.267,-0.224,0.185,-0.203,-0.579,-0.002
'0:00.186',0.027,-1.029,-1.056,0.500,0.541,-1.042,0.115,0.236,0.614,0.261,-0.228,0.180,-0.209,-0.585,0.001
'0:00.187',0.025,-1.032,-1.056,0.503,0.540,-1.044,0.117,0.233,0.609,0.255,-0.232,0.174,-0.216,-0.588,0.000
'0:00.188',0.024,-1.038,-1.061,0.506,0.542,-1.049,0.118,0.231,0.605,0.250,-0.235,0.169,-0.222,-0.590,0.004
'0:00.189',0.024,-1.041,-1.065,0.508,0.544,-1.052,0.118,0.228,0.599,0.244,-0.240,0.166,-0.224,-0.594,0.002
'0:00.190',0.022,-1.040,-1.063,0.509,0.543,-1.052,0.118,0.223,0.595,0.236,-0.245,0.160,-0.229,-0.596,-0.006
'0:00.191',0.022,-1.048,-1.069,0.512,0.545,-1.058,0.119,0.221,0.591,0.231,-0.250,0.153,-0.235,-0.597,0.002
'0:00.192',0.021,-1.053,-1.073,0.516,0.547,-1.063,0.120,0.219,0.586,0.229,-0.254,0.151,-0.238,-0.601,0.009
'0:00.193',0.022,-1.054,-1.077,0.516,0.550,-1.066,0.123,0.220,0.583,0.226,-0.255,0.148,-0.243,-0.605,0.009
'0:00.194',0.025,-1.056,-1.081,0.515,0.553,-1.069,0.120,0.216,0.577,0.220,-0.259,0.141,-0.247,-0.608,0.009
'0:00.195',0.023,-1.060,-1.083,0.518,0.553,-1.071,0.122,0.213,0.575,0.215,-0.263,0.140,-0.248,-0.611,0.011
'0:00.196',0.021,-1.063,-1.085,0.521,0.552,-1.074,0.128,0.213,0.573,0.213,-0.264,0.138,-0.252,-0.613,0.011
'0:00.197',0.022,-1.065,-1.087,0.521,0.554,-1.076,0.126,0.209,0.567,0.206,-0.268,0.131,-0.257,-0.617,0.015
'0:00.198',0.019,-1.068,-1.087,0.524,0.553,-1.077,0.126,0.207,0.564,0.204,-0.271,0.127,-0.260,-0.620,0.017
'0:00.199',0.015,-1.073,-1.087,0.528,0.551,-1.080,0.124,0.204,0.558,0.200,-0.275,0.122,-0.264,-0.622,0.017
'0:00.200',0.013,-1.075,-1.088,0.530,0.551,-1.081,0.123,0.203,0.554,0.194,-0.278,0.117,-0.268,-0.624,0.018
'0:00.201',0.013,-1.079,-1.093,0.533,0.553,-1.087,0.126,0.201,0.552,0.192,-0.280,0.113,-0.271,-0.629,0.018
'0:00.202',0.015,-1.083,-1.098,0.534,0.556,-1.091,0.126,0.198,0.549,0.189,-0.285,0.110,-0.274,-0.632,0.018
'0:00.203',0.009,-1.085,-1.093,0.538,0.551,-1.089,0.122,0.194,0.543,0.180,-0.289,0.104,-0.276,-0.629,0.020
'0:00.204',0.005,-1.089,-1.095,0.542,0.550,-1.093,0.119,0.189,0.539,0.174,-0.295,0.099,-0.279,-0.630,0.018
'0:00.205',0.006,-1.087,-1.095,0.540,0.551,-1.091,0.121,0.192,0.538,0.174,-0.298,0.098,-0.281,-0.631,0.017
'0:00.206',0.004,-1.087,-1.091,0.541,0.548,-1.089,0.124,0.192,0.538,0.172,-0.298,0.095,-0.284,-0.631,0.019
'0:00.207',0.004,-1.087,-1.092,0.541,0.548,-1.089,0.123,0.189,0.536,0.170,-0.300,0.093,-0.285,-0.628,0.019
'0:00.208',0.006,-1.089,-1.095,0.541,0.551,-1.092,0.122,0.189,0.531,0.168,-0.302,0.091,-0.284,-0.629,0.021
'0:00.209',0.003,-1.093,-1.097,0.545,0.550,-1.095,0.123,0.187,0.529,0.165,-0.304,0.089,-0.286,-0.633,0.021
'0:00.210',-0.003,-1.097,-1.095,0.550,0.546,-1.096,0.124,0.184,0.527,0.162,-0.306,0.088,-0.288,-0.634,0.024
'0:00.211',-0.006,-1.104,-1.097,0.555,0.546,-1.101,0.126,0.184,0.526,0.159,-0.305,0.087,-0.291,-0.633,0.025
'0:00.212',-0.006,-1.106,-1.101,0.555,0.547,-1.103,0.127,0.183,0.526,0.158,-0.306,0.085,-0.294,-0.633,0.028
'0:00.213',-0.004,-1.103,-1.099,0.553,0.547,-1.101,0.127,0.183,0.525,0.158,-0.308,0.083,-0.294,-0.632,0.029
'0:00.214',-0.009,-1.107,-1.098,0.557,0.545,-1.103,0.127,0.183,0.522,0.158,-0.309,0.084,-0.296,-0.636,0.026
'0:00.215',-0.007,-1.108,-1.101,0.557,0.546,-1.104,0.126,0.182,0.522,0.158,-0.310,0.083,-0.295,-0.637,0.026
'0:00.216',-0.002,-1.103,-1.101,0.552,0.550,-1.103,0.126,0.183,0.524,0.158,-0.309,0.083,-0.291,-0.634,0.025
'0:00.217',-0.006,-1.105,-1.099,0.555,0.546,-1.101,0.127,0.179,0.519,0.153,-0.312,0.079,-0.297,-0.639,0.025
'0:00.218',-0.005,-1.105,-1.100,0.555,0.547,-1.103,0.126,0.177,0.517,0.150,-0.316,0.075,-0.303,-0.642,0.022
'0:00.219',-0.004,-1.105,-1.102,0.554,0.549,-1.104,0.129,0.179,0.518,0.152,-0.315,0.078,-0.302,-0.642,0.023
'0:00.220',-0.006,-1.107,-1.101,0.556,0.548,-1.105,0.130,0.182,0.518,0.153,-0.313,0.079,-0.302,-0.642,0.025
'0:00.221',-0.004,-1.111,-1.107,0.557,0.552,-1.109,0.131,0.184,0.518,0.156,-0.310,0.080,-0.302,-0.645,0.025
'0:00.222',-0.004,-1.113,-1.109,0.558,0.553,-1.111,0.130,0.181,0.517,0.153,-0.312,0.077,-0.303,-0.646,0.026
'0:00.223',-0.009,-1.114,-1.105,0.561,0.548,-1.110,0.129,0.178,0.516,0.149,-0.315,0.073,-0.305,-0.645,0.029
'0:00.224',-0.011,-1.117,-1.105,0.564,0.547,-1.111,0.129,0.177,0.515,0.148,-0.316,0.072,-0.306,-0.644,0.030
'0:00.225',-0.009,-1.115,-1.107,0.561,0.549,-1.111,0.127,0.177,0.513,0.148,-0.317,0.072,-0.306,-0.643,0.029
'0:00.226',-0.005,-1.111,-1.106,0.558,0.550,-1.109,0.124,0.175,0.512,0.147,-0.316,0.071,-0.306,-0.645,0.029
'0:00.227',-0.009,-1.114,-1.105,0.561,0.548,-1.109,0.127,0.174,0.511,0.145,-0.317,0.069,-0.310,-0.645,0.030
'0:00.228',-0.012,-1.119,-1.107,0.566,0.548,-1.113,0.130,0.175,0.512,0.145,-0.315,0.070,-0.309,-0.647,0.028
'0:00.229',-0.011,-1.116,-1.105,0.563,0.547,-1.111,0.124,0.174,0.510,0.143,-0.314,0.070,-0.308,-0.648,0.025
'0:00.230',-0.009,-1.113,-1.103,0.560,0.547,-1.108,0.124,0.173,0.507,0.141,-0.316,0.069,-0.308,-0.645,0.025
'0:00.231',-0.009,-1.113,-1.105,0.560,0.548,-1.109,0.127,0.172,0.508,0.142,-0.313,0.071,-0.304,-0.641,0.026
'0:00.232',-0.011,-1.115,-1.104,0.562,0.547,-1.109,0.127,0.174,0.507,0.142,-0.313,0.072,-0.307,-0.645,0.026
'0:00.233',-0.013,-1.117,-1.105,0.565,0.546,-1.111,0.130,0.174,0.508,0.143,-0.314,0.071,-0.309,-0.650,0.027
'0:00.234',-0.011,-1.119,-1.109,0.565,0.549,-1.114,0.131,0.174,0.511,0.144,-0.312,0.071,-0.309,-0.652,0.029
'0:00.235',-0.009,-1.123,-1.114,0.567,0.552,-1.119,0.130,0.173,0.509,0.144,-0.311,0.070,-0.311,-0.653,0.034
'0:00.236',-0.007,-1.122,-1.115,0.565,0.554,-1.119,0.129,0.173,0.507,0.143,-0.312,0.070,-0.309,-0.652,0.035
'0:00.237',-0.011,-1.121,-1.111,0.566,0.550,-1.115,0.130,0.174,0.506,0.142,-0.311,0.069,-0.312,-0.651,0.034
'0:00.238',-0.013,-1.121,-1.107,0.567,0.547,-1.114,0.133,0.173,0.507,0.141,-0.309,0.069,-0.311,-0.646,0.036
'0:00.239',-0.010,-1.116,-1.106,0.562,0.548,-1.111,0.133,0.174,0.507,0.142,-0.305,0.070,-0.310,-0.646,0.037
'0:00.240',-0.006,-1.111,-1.105,0.558,0.549,-1.107,0.132,0.172,0.505,0.140,-0.308,0.067,-0.311,-0.647,0.038
'0:00.241',-0.006,-1.111,-1.105,0.558,0.550,-1.109,0.132,0.172,0.505,0.138,-0.312,0.067,-0.312,-0.648,0.038
'0:00.242',-0.009,-1.116,-1.107,0.562,0.549,-1.111,0.130,0.171,0.504,0.138,-0.313,0.065,-0.312,-0.648,0.038
'0:00.243',-0.014,-1.120,-1.107,0.567,0.546,-1.113,0.129,0.168,0.502,0.135,-0.317,0.064,-0.312,-0.647,0.037
'0:00.244',-0.013,-1.121,-1.109,0.567,0.548,-1.115,0.126,0.165,0.500,0.130,-0.319,0.064,-0.313,-0.653,0.035
'0:00.245',-0.014,-1.121,-1.107,0.567,0.547,-1.114,0.129,0.167,0.501,0.132,-0.318,0.064,-0.312,-0.653,0.033
'0:00.246',-0.017,-1.119,-1.103,0.568,0.543,-1.111,0.131,0.170,0.503,0.135,-0.316,0.067,-0.312,-0.651,0.032
'0:00.247',-0.017,-1.119,-1.102,0.568,0.543,-1.111,0.130,0.169,0.502,0.133,-0.316,0.067,-0.311,-0.649,0.032
'0:00.248',-0.019,-1.124,-1.105,0.572,0.543,-1.114,0.134,0.172,0.505,0.135,-0.316,0.070,-0.312,-0.650,0.035
'0:00.249',-0.022,-1.127,-1.104,0.574,0.541,-1.115,0.133,0.171,0.504,0.135,-0.314,0.070,-0.311,-0.653,0.036
'0:00.250',-0.023,-1.124,-1.101,0.574,0.539,-1.113,0.131,0.168,0.501,0.131,-0.317,0.067,-0.312,-0.648,0.037
'0:00.251',-0.029,-1.126,-1.097,0.577,0.535,-1.112,0.130,0.167,0.500,0.131,-0.319,0.067,-0.313,-0.647,0.039
'0:00.252',-0.029,-1.125,-1.095,0.578,0.533,-1.111,0.132,0.167,0.503,0.133,-0.318,0.068,-0.313,-0.649,0.038
'0:00.253',-0.025,-1.124,-1.099,0.575,0.537,-1.111,0.134,0.170,0.506,0.136,-0.316,0.070,-0.312,-0.647,0.032
'0:00.254',-0.021,-1.127,-1.105,0.574,0.542,-1.116,0.133,0.172,0.505,0.136,-0.316,0.070,-0.311,-0.649,0.032
'0:00.255',-0.021,-1.127,-1.107,0.574,0.543,-1.117,0.132,0.171,0.504,0.133,-0.317,0.069,-0.314,-0.653,0.033
'0:00.256',-0.026,-1.127,-1.101,0.577,0.537,-1.113,0.136,0.170,0.503,0.132,-0.315,0.068,-0.314,-0.654,0.028
'0:00.257',-0.028,-1.128,-1.100,0.578,0.536,-1.114,0.136,0.170,0.502,0.132,-0.315,0.066,-0.315,-0.654,0.029
'0:00.258',-0.026,-1.127,-1.101,0.577,0.537,-1.114,0.131,0.168,0.503,0.133,-0.316,0.066,-0.316,-0.653,0.031
'0:00.259',-0.023,-1.121,-1.098,0.572,0.537,-1.109,0.130,0.168,0.504,0.133,-0.314,0.067,-0.314,-0.648,0.034
'0:00.260',-0.023,-1.121,-1.097,0.572,0.537,-1.109,0.130,0.168,0.501,0.132,-0.316,0.065,-0.316,-0.645,0.037
'0:00.261',-0.028,-1.121,-1.093,0.575,0.533,-1.107,0.131,0.167,0.500,0.132,-0.316,0.065,-0.317,-0.650,0.037
'0:00.262',-0.032,-1.123,-1.091,0.578,0.530,-1.107,0.132,0.167,0.501,0.132,-0.315,0.065,-0.318,-0.653,0.036
'0:00.263',-0.037,-1.127,-1.090,0.582,0.527,-1.109,0.130,0.166,0.501,0.127,-0.318,0.063,-0.317,-0.651,0.036
'0:00.264',-0.038,-1.129,-1.091,0.584,0.526,-1.109,0.127,0.164,0.497,0.123,-0.322,0.060,-0.319,-0.650,0.037
'0:00.265',-0.035,-1.128,-1.093,0.581,0.529,-1.111,0.127,0.164,0.497,0.127,-0.321,0.060,-0.319,-0.651,0.032
'0:00.266',-0.033,-1.127,-1.095,0.580,0.532,-1.111,0.130,0.164,0.497,0.126,-0.320,0.061,-0.316,-0.654,0.025
'0:00.267',-0.032,-1.129,-1.097,0.581,0.533,-1.113,0.131,0.164,0.498,0.123,-0.320,0.062,-0.318,-0.655,0.024
'0:00.268',-0.034,-1.129,-1.095,0.581,0.531,-1.112,0.133,0.167,0.500,0.127,-0.319,0.062,-0.319,-0.651,0.026
'0:00.269',-0.034,-1.127,-1.095,0.580,0.531,-1.111,0.133,0.165,0.498,0.124,-0.320,0.060,-0.319,-0.648,0.035
'0:00.270',-0.035,-1.132,-1.097,0.584,0.531,-1.114,0.133,0.165,0.498,0.124,-0.319,0.060,-0.319,-0.650,0.037
'0:00.271',-0.035,-1.135,-1.100,0.585,0.532,-1.118,0.131,0.166,0.497,0.122,-0.319,0.061,-0.319,-0.652,0.034
'0:00.272',-0.034,-1.133,-1.099,0.583,0.533,-1.117,0.131,0.165,0.496,0.121,-0.321,0.059,-0.320,-0.651,0.032
'0:00.273',-0.037,-1.133,-1.095,0.585,0.529,-1.114,0.132,0.167,0.500,0.124,-0.320,0.059,-0.321,-0.648,0.035
'0:00.274',-0.037,-1.133,-1.097,0.585,0.530,-1.115,0.133,0.169,0.498,0.124,-0.320,0.060,-0.321,-0.648,0.036
'0:00.275',-0.035,-1.131,-1.096,0.583,0.530,-1.113,0.133,0.169,0.498,0.124,-0.319,0.060,-0.321,-0.648,0.035
'0:00.276',-0.031,-1.128,-1.097,0.580,0.533,-1.113,0.133,0.168,0.497,0.123,-0.318,0.061,-0.321,-0.646,0.037
'0:00.277',-0.032,-1.130,-1.099,0.581,0.534,-1.115,0.132,0.167,0.497,0.123,-0.319,0.060,-0.320,-0.646,0.034
'0:00.278',-0.033,-1.129,-1.095,0.581,0.531,-1.112,0.130,0.166,0.494,0.120,-0.323,0.056,-0.322,-0.645,0.029
'0:00.279',-0.032,-1.125,-1.094,0.578,0.531,-1.109,0.131,0.166,0.495,0.120,-0.323,0.056,-0.323,-0.648,0.034
'0:00.280',-0.032,-1.128,-1.097,0.580,0.533,-1.113,0.132,0.171,0.497,0.124,-0.321,0.058,-0.324,-0.651,0.035
'0:00.281',-0.028,-1.128,-1.100,0.578,0.536,-1.114,0.133,0.171,0.499,0.125,-0.320,0.058,-0.322,-0.650,0.036
'0:00.282',-0.025,-1.125,-1.100,0.576,0.537,-1.113,0.132,0.169,0.498,0.122,-0.322,0.056,-0.323,-0.650,0.039
'0:00.283',-0.028,-1.125,-1.098,0.577,0.535,-1.112,0.129,0.166,0.495,0.118,-0.326,0.051,-0.325,-0.647,0.038
'0:00.284',-0.030,-1.129,-1.099,0.580,0.534,-1.113,0.131,0.167,0.496,0.118,-0.325,0.051,-0.325,-0.644,0.036
'0:00.285',-0.028,-1.127,-1.099,0.577,0.536,-1.113,0.131,0.167,0.496,0.115,-0.325,0.051,-0.325,-0.642,0.037
'0:00.286',-0.030,-1.126,-1.097,0.578,0.533,-1.111,0.131,0.167,0.495,0.117,-0.326,0.050,-0.326,-0.645,0.037
'0:00.287',-0.034,-1.125,-1.091,0.580,0.529,-1.109,0.132,0.165,0.494,0.117,-0.325,0.050,-0.326,-0.647,0.036
'0:00.288',-0.033,-1.127,-1.095,0.580,0.531,-1.111,0.133,0.167,0.494,0.116,-0.325,0.050,-0.326,-0.647,0.035
'0:00.289',-0.034,-1.133,-1.099,0.583,0.533,-1.115,0.133,0.168,0.496,0.117,-0.325,0.051,-0.327,-0.650,0.033
'0:00.290',-0.033,-1.129,-1.097,0.581,0.532,-1.113,0.132,0.167,0.497,0.117,-0.324,0.050,-0.326,-0.643,0.033
'0:00.291',-0.030,-1.128,-1.098,0.579,0.534,-1.113,0.131,0.168,0.496,0.116,-0.325,0.050,-0.326,-0.641,0.033
'0:00.292',-0.026,-1.127,-1.101,0.577,0.538,-1.115,0.133,0.170,0.498,0.117,-0.324,0.052,-0.326,-0.643,0.034
'0:00.293',-0.025,-1.125,-1.099,0.575,0.536,-1.111,0.136,0.172,0.501,0.120,-0.322,0.052,-0.326,-0.645,0.035
'0:00.294',-0.025,-1.125,-1.099,0.576,0.537,-1.113,0.136,0.172,0.500,0.123,-0.321,0.054,-0.327,-0.649,0.035
'0:00.295',-0.028,-1.127,-1.100,0.578,0.536,-1.113,0.135,0.172,0.501,0.122,-0.322,0.052,-0.326,-0.648,0.035
'0:00.296',-0.029,-1.129,-1.101,0.579,0.536,-1.115,0.133,0.171,0.500,0.121,-0.321,0.051,-0.326,-0.650,0.035
'0:00.297',-0.024,-1.125,-1.101,0.574,0.539,-1.113,0.136,0.173,0.502,0.122,-0.321,0.053,-0.326,-0.648,0.035
'0:00.298',-0.021,-1.119,-1.099,0.571,0.539,-1.109,0.136,0.174,0.504,0.122,-0.321,0.054,-0.325,-0.645,0.035
'0:00.299',-0.018,-1.115,-1.097,0.567,0.539,-1.107,0.139,0.175,0.503,0.124,-0.319,0.055,-0.324,-0.648,0.035
'0:00.300',-0.017,-1.114,-1.097,0.566,0.540,-1.106,0.139,0.177,0.505,0.128,-0.318,0.057,-0.324,-0.648,0.036
'0:00.301',-0.019,-1.119,-1.100,0.569,0.540,-1.110,0.139,0.178,0.505,0.128,-0.317,0.058,-0.327,-0.652,0.034
'0:00.302',-0.021,-1.121,-1.099,0.571,0.539,-1.110,0.140,0.178,0.504,0.126,-0.320,0.056,-0.329,-0.652,0.031
'0:00.303',-0.025,-1.124,-1.099,0.575,0.536,-1.111,0.137,0.176,0.502,0.125,-0.321,0.054,-0.328,-0.650,0.032
'0:00.304',-0.027,-1.126,-1.099,0.577,0.536,-1.113,0.136,0.175,0.502,0.123,-0.321,0.056,-0.328,-0.649,0.030
'0:00.305',-0.026,-1.125,-1.099,0.576,0.536,-1.111,0.135,0.176,0.503,0.124,-0.321,0.054,-0.327,-0.648,0.033
'0:00.306',-0.026,-1.125,-1.098,0.576,0.536,-1.111,0.136,0.175,0.504,0.126,-0.321,0.055,-0.327,-0.650,0.033
'0:00.307',-0.023,-1.125,-1.101,0.574,0.539,-1.113,0.138,0.175,0.505,0.126,-0.320,0.058,-0.325,-0.652,0.028
'0:00.308',-0.022,-1.127,-1.105,0.575,0.541,-1.117,0.139,0.179,0.508,0.127,-0.318,0.059,-0.324,-0.652,0.027
'0:00.309',-0.023,-1.129,-1.106,0.576,0.542,-1.117,0.139,0.177,0.507,0.126,-0.319,0.058,-0.325,-0.652,0.027
'0:00.310',-0.022,-1.129,-1.107,0.576,0.542,-1.118,0.134,0.173,0.504,0.124,-0.323,0.056,-0.325,-0.649,0.028
'0:00.311',-0.019,-1.129,-1.109,0.574,0.545,-1.119,0.132,0.173,0.504,0.122,-0.325,0.055,-0.324,-0.649,0.029
'0:00.312',-0.017,-1.128,-1.111,0.572,0.547,-1.119,0.134,0.175,0.507,0.124,-0.323,0.053,-0.326,-0.650,0.029
'0:00.313',-0.017,-1.130,-1.113,0.573,0.548,-1.121,0.137,0.178,0.510,0.129,-0.321,0.057,-0.325,-0.653,0.029
'0:00.314',-0.017,-1.131,-1.115,0.573,0.549,-1.123,0.138,0.180,0.508,0.130,-0.321,0.058,-0.325,-0.657,0.027
'0:00.315',-0.017,-1.129,-1.113,0.573,0.548,-1.121,0.137,0.180,0.509,0.129,-0.319,0.057,-0.326,-0.655,0.025
'0:00.316',-0.017,-1.130,-1.113,0.573,0.548,-1.121,0.138,0.181,0.510,0.130,-0.318,0.058,-0.324,-0.651,0.033
'0:00.317',-0.020,-1.128,-1.109,0.574,0.544,-1.119,0.137,0.181,0.510,0.128,-0.321,0.055,-0.326,-0.650,0.029
'0:00.318',-0.022,-1.131,-1.108,0.577,0.543,-1.119,0.136,0.180,0.509,0.128,-0.321,0.054,-0.325,-0.654,0.023
'0:00.319',-0.025,-1.137,-1.112,0.581,0.543,-1.125,0.139,0.182,0.511,0.128,-0.322,0.054,-0.325,-0.659,0.025
'0:00.320',-0.025,-1.138,-1.113,0.582,0.544,-1.125,0.140,0.183,0.511,0.129,-0.322,0.054,-0.325,-0.660,0.025
'0:00.321',-0.021,-1.138,-1.117,0.580,0.547,-1.127,0.141,0.186,0.510,0.132,-0.321,0.056,-0.325,-0.661,0.029
'0:00.322',-0.019,-1.141,-1.121,0.580,0.551,-1.131,0.140,0.183,0.510,0.129,-0.323,0.054,-0.326,-0.660,0.035
'0:00.323',-0.018,-1.142,-1.123,0.580,0.552,-1.133,0.139,0.183,0.510,0.129,-0.324,0.054,-0.324,-0.659,0.033
'0:00.324',-0.018,-1.137,-1.118,0.577,0.550,-1.127,0.136,0.184,0.511,0.127,-0.325,0.051,-0.325,-0.656,0.030
'0:00.325',-0.020,-1.135,-1.115,0.577,0.548,-1.125,0.137,0.186,0.513,0.128,-0.324,0.053,-0.325,-0.650,0.029
'0:00.326',-0.020,-1.135,-1.115,0.577,0.548,-1.125,0.137,0.182,0.510,0.128,-0.325,0.051,-0.327,-0.655,0.029
'0:00.327',-0.018,-1.133,-1.115,0.575,0.549,-1.123,0.134,0.177,0.506,0.124,-0.328,0.049,-0.329,-0.654,0.029
'0:00.328',-0.018,-1.134,-1.115,0.576,0.548,-1.125,0.136,0.180,0.509,0.127,-0.326,0.050,-0.329,-0.650,0.028
'0:00.329',-0.021,-1.135,-1.115,0.578,0.547,-1.125,0.137,0.182,0.508,0.127,-0.326,0.051,-0.327,-0.653,0.029
'0:00.330',-0.021,-1.140,-1.119,0.580,0.549,-1.129,0.139,0.183,0.508,0.127,-0.326,0.053,-0.327,-0.654,0.031
'0:00.331',-0.022,-1.141,-1.119,0.582,0.549,-1.131,0.139,0.183,0.511,0.128,-0.325,0.053,-0.327,-0.651,0.030
'0:00.332',-0.021,-1.138,-1.116,0.580,0.547,-1.127,0.137,0.184,0.510,0.129,-0.324,0.053,-0.328,-0.648,0.029
'0:00.333',-0.017,-1.138,-1.121,0.577,0.553,-1.130,0.139,0.186,0.510,0.130,-0.324,0.054,-0.328,-0.653,0.031
'0:00.334',-0.015,-1.136,-1.121,0.576,0.553,-1.129,0.140,0.187,0.509,0.133,-0.321,0.057,-0.326,-0.654,0.031
'0:00.335',-0.016,-1.136,-1.120,0.576,0.552,-1.128,0.139,0.186,0.508,0.132,-0.323,0.054,-0.327,-0.655,0.028
'0:00.336',-0.016,-1.141,-1.125,0.579,0.554,-1.133,0.139,0.185,0.508,0.131,-0.323,0.054,-0.327,-0.662,0.028
'0:00.337',-0.018,-1.142,-1.124,0.580,0.553,-1.133,0.141,0.188,0.508,0.133,-0.321,0.056,-0.325,-0.665,0.028
'0:00.338',-0.021,-1.141,-1.120,0.580,0.550,-1.131,0.139,0.189,0.509,0.132,-0.322,0.056,-0.326,-0.663,0.026
'0:00.339',-0.019,-1.138,-1.119,0.578,0.550,-1.129,0.139,0.188,0.510,0.134,-0.320,0.057,-0.326,-0.661,0.026
'0:00.340',-0.018,-1.135,-1.117,0.577,0.549,-1.125,0.140,0.188,0.510,0.135,-0.320,0.057,-0.325,-0.660,0.026
'0:00.341',-0.018,-1.137,-1.119,0.578,0.550,-1.128,0.140,0.188,0.513,0.136,-0.319,0.059,-0.324,-0.662,0.025
'0:00.342',-0.017,-1.139,-1.123,0.578,0.553,-1.131,0.137,0.186,0.511,0.133,-0.323,0.057,-0.324,-0.664,0.023
'0:00.343',-0.019,-1.141,-1.122,0.580,0.551,-1.131,0.136,0.185,0.509,0.129,-0.327,0.055,-0.325,-0.661,0.021
'0:00.344',-0.020,-1.147,-1.127,0.583,0.553,-1.137,0.135,0.186,0.509,0.130,-0.326,0.056,-0.324,-0.662,0.021
'0:00.345',-0.016,-1.148,-1.132,0.582,0.558,-1.140,0.134,0.186,0.510,0.131,-0.327,0.056,-0.322,-0.668,0.019
'0:00.346',-0.014,-1.147,-1.133,0.581,0.559,-1.139,0.136,0.187,0.511,0.133,-0.325,0.057,-0.323,-0.670,0.019
'0:00.347',-0.018,-1.147,-1.128,0.583,0.555,-1.137,0.137,0.187,0.511,0.134,-0.324,0.058,-0.323,-0.663,0.021
'0:00.348',-0.019,-1.150,-1.131,0.585,0.555,-1.140,0.137,0.185,0.511,0.133,-0.326,0.058,-0.322,-0.663,0.027
'0:00.349',-0.019,-1.151,-1.131,0.585,0.556,-1.141,0.140,0.186,0.511,0.132,-0.326,0.059,-0.322,-0.663,0.033
'0:00.350',-0.019,-1.149,-1.130,0.584,0.555,-1.139,0.140,0.188,0.512,0.133,-0.325,0.058,-0.322,-0.657,0.030
'0:00.351',-0.017,-1.150,-1.133,0.583,0.558,-1.141,0.134,0.187,0.510,0.132,-0.326,0.058,-0.322,-0.657,0.029
'0:00.352',-0.017,-1.149,-1.133,0.583,0.558,-1.141,0.136,0.186,0.511,0.131,-0.326,0.058,-0.320,-0.656,0.030
'0:00.353',-0.016,-1.149,-1.133,0.583,0.559,-1.141,0.136,0.189,0.513,0.136,-0.322,0.061,-0.321,-0.658,0.030
'0:00.354',-0.017,-1.151,-1.134,0.584,0.558,-1.143,0.135,0.189,0.512,0.137,-0.322,0.060,-0.322,-0.660,0.031
'0:00.355',-0.022,-1.154,-1.132,0.588,0.555,-1.143,0.140,0.189,0.512,0.136,-0.322,0.060,-0.322,-0.665,0.029
'0:00.356',-0.022,-1.154,-1.131,0.588,0.554,-1.143,0.141,0.187,0.510,0.135,-0.321,0.061,-0.322,-0.667,0.029
'0:00.357',-0.022,-1.153,-1.131,0.588,0.555,-1.142,0.140,0.188,0.512,0.135,-0.321,0.061,-0.321,-0.665,0.029
'0:00.358',-0.021,-1.153,-1.131,0.587,0.555,-1.142,0.140,0.189,0.512,0.136,-0.320,0.060,-0.322,-0.665,0.029
'0:00.359',-0.020,-1.149,-1.129,0.584,0.554,-1.138,0.140,0.188,0.511,0.136,-0.320,0.059,-0.324,-0.664,0.031
'0:00.360',-0.019,-1.149,-1.129,0.584,0.555,-1.139,0.142,0.188,0.512,0.137,-0.320,0.059,-0.323,-0.664,0.030
'0:00.361',-0.017,-1.147,-1.130,0.582,0.557,-1.139,0.139,0.187,0.512,0.139,-0.322,0.060,-0.321,-0.659,0.032
'0:00.362',-0.017,-1.147,-1.131,0.582,0.557,-1.139,0.137,0.186,0.511,0.136,-0.323,0.059,-0.321,-0.660,0.029
'0:00.363',-0.020,-1.149,-1.129,0.584,0.554,-1.139,0.138,0.185,0.507,0.131,-0.326,0.056,-0.324,-0.658,0.028
'0:00.364',-0.024,-1.145,-1.121,0.584,0.549,-1.133,0.136,0.183,0.507,0.129,-0.327,0.053,-0.324,-0.654,0.028
'0:00.365',-0.029,-1.149,-1.120,0.590,0.545,-1.135,0.138,0.182,0.506,0.130,-0.327,0.055,-0.324,-0.659,0.029
'0:00.366',-0.029,-1.146,-1.117,0.588,0.544,-1.131,0.138,0.181,0.504,0.130,-0.327,0.054,-0.325,-0.661,0.029
'0:00.367',-0.022,-1.141,-1.117,0.582,0.548,-1.129,0.136,0.179,0.502,0.129,-0.328,0.054,-0.326,-0.658,0.029
'0:00.368',-0.018,-1.145,-1.127,0.581,0.555,-1.136,0.138,0.181,0.503,0.130,-0.327,0.056,-0.325,-0.656,0.029
'0:00.369',-0.016,-1.149,-1.133,0.582,0.559,-1.141,0.141,0.183,0.506,0.129,-0.327,0.054,-0.325,-0.658,0.032
'0:00.370',-0.019,-1.151,-1.131,0.585,0.556,-1.141,0.139,0.182,0.504,0.127,-0.328,0.053,-0.326,-0.661,0.031
'0:00.371',-0.022,-1.151,-1.129,0.587,0.553,-1.139,0.137,0.180,0.503,0.128,-0.328,0.053,-0.326,-0.665,0.029
'0:00.372',-0.021,-1.149,-1.129,0.585,0.554,-1.139,0.140,0.182,0.505,0.128,-0.327,0.053,-0.327,-0.665,0.032
'0:00.373',-0.017,-1.146,-1.129,0.581,0.556,-1.137,0.139,0.184,0.506,0.131,-0.326,0.054,-0.327,-0.660,0.035
'0:00.374',-0.013,-1.144,-1.131,0.578,0.559,-1.137,0.141,0.184,0.506,0.132,-0.324,0.053,-0.327,-0.659,0.036
'0:00.375',-0.013,-1.147,-1.135,0.580,0.561,-1.141,0.139,0.182,0.504,0.129,-0.326,0.052,-0.327,-0.662,0.036
'0:00.376',-0.016,-1.149,-1.133,0.583,0.559,-1.141,0.137,0.180,0.500,0.128,-0.329,0.051,-0.327,-0.664,0.037
'0:00.377',-0.019,-1.150,-1.130,0.585,0.555,-1.140,0.139,0.181,0.500,0.129,-0.328,0.051,-0.327,-0.664,0.040
'0:00.378',-0.021,-1.150,-1.129,0.585,0.554,-1.139,0.137,0.180,0.500,0.130,-0.328,0.052,-0.326,-0.664,0.039
'0:00.379',-0.019,-1.147,-1.127,0.583,0.554,-1.137,0.137,0.180,0.500,0.129,-0.328,0.051,-0.327,-0.663,0.038
'0:00.380',-0.021,-1.149,-1.128,0.585,0.553,-1.139,0.134,0.179,0.498,0.129,-0.330,0.050,-0.329,-0.663,0.038
'0:00.381',-0.018,-1.147,-1.129,0.582,0.556,-1.138,0.134,0.179,0.498,0.128,-0.329,0.051,-0.327,-0.662,0.042
'0:00.382',-0.015,-1.145,-1.129,0.580,0.557,-1.137,0.137,0.181,0.499,0.129,-0.328,0.051,-0.327,-0.661,0.042
'0:00.383',-0.019,-1.150,-1.130,0.585,0.555,-1.140,0.136,0.177,0.496,0.125,-0.331,0.047,-0.331,-0.660,0.037
'0:00.384',-0.015,-1.147,-1.131,0.581,0.558,-1.139,0.135,0.176,0.494,0.122,-0.332,0.043,-0.332,-0.657,0.037
'0:00.385',-0.015,-1.147,-1.133,0.581,0.559,-1.139,0.133,0.175,0.493,0.120,-0.333,0.043,-0.332,-0.657,0.038
'0:00.386',-0.013,-1.147,-1.134,0.580,0.560,-1.141,0.136,0.177,0.496,0.121,-0.332,0.046,-0.330,-0.657,0.037
'0:00.387',-0.011,-1.145,-1.133,0.578,0.561,-1.139,0.137,0.177,0.496,0.124,-0.331,0.049,-0.330,-0.654,0.036
'0:00.388',-0.018,-1.151,-1.133,0.585,0.557,-1.142,0.135,0.176,0.495,0.122,-0.330,0.047,-0.332,-0.658,0.036
'0:00.389',-0.022,-1.155,-1.133,0.589,0.555,-1.144,0.135,0.175,0.494,0.122,-0.332,0.046,-0.334,-0.664,0.035
'0:00.390',-0.025,-1.156,-1.131,0.591,0.553,-1.143,0.135,0.174,0.492,0.119,-0.334,0.045,-0.334,-0.663,0.033
'0:00.391',-0.029,-1.159,-1.130,0.595,0.550,-1.145,0.134,0.172,0.492,0.118,-0.332,0.044,-0.334,-0.663,0.033
'0:00.392',-0.024,-1.157,-1.133,0.590,0.554,-1.145,0.132,0.171,0.492,0.119,-0.333,0.043,-0.333,-0.662,0.033
'0:00.393',-0.025,-1.157,-1.133,0.591,0.554,-1.145,0.138,0.174,0.494,0.121,-0.333,0.044,-0.335,-0.662,0.033
'0:00.394',-0.028,-1.160,-1.132,0.594,0.552,-1.146,0.140,0.175,0.493,0.122,-0.331,0.045,-0.336,-0.663,0.034
'0:00.395',-0.022,-1.158,-1.137,0.590,0.557,-1.147,0.137,0.175,0.492,0.122,-0.332,0.044,-0.335,-0.664,0.036
'0:00.396',-0.017,-1.155,-1.139,0.586,0.561,-1.147,0.137,0.177,0.493,0.123,-0.331,0.046,-0.331,-0.661,0.039
'0:00.397',-0.013,-1.155,-1.141,0.584,0.564,-1.148,0.135,0.176,0.492,0.121,-0.331,0.046,-0.329,-0.658,0.043
'0:00.398',-0.024,-1.163,-1.140,0.594,0.558,-1.152,0.136,0.172,0.490,0.118,-0.335,0.043,-0.338,-0.663,0.041
'0:00.399',-0.033,-1.167,-1.134,0.600,0.551,-1.151,0.138,0.172,0.489,0.119,-0.335,0.043,-0.342,-0.671,0.036
'0:00.400',-0.035,-1.167,-1.133,0.601,0.549,-1.149,0.141,0.174,0.490,0.121,-0.335,0.043,-0.341,-0.678,0.032
'0:00.401',-0.037,-1.171,-1.133,0.604,0.549,-1.152,0.141,0.172,0.489,0.121,-0.335,0.042,-0.343,-0.682,0.030
'0:00.402',-0.033,-1.167,-1.134,0.600,0.551,-1.151,0.138,0.172,0.489,0.118,-0.335,0.041,-0.340,-0.674,0.040
'0:00.403',-0.034,-1.167,-1.133,0.601,0.550,-1.150,0.136,0.170,0.487,0.115,-0.338,0.037,-0.341,-0.664,0.044
'0:00.404',-0.037,-1.171,-1.133,0.604,0.548,-1.151,0.134,0.168,0.485,0.112,-0.341,0.037,-0.341,-0.661,0.044
'0:00.405',-0.038,-1.168,-1.130,0.603,0.546,-1.149,0.132,0.168,0.485,0.112,-0.342,0.038,-0.340,-0.664,0.043
'0:00.406',-0.037,-1.167,-1.129,0.602,0.546,-1.148,0.133,0.167,0.485,0.114,-0.340,0.037,-0.340,-0.666,0.042
'0:00.407',-0.035,-1.165,-1.130,0.600,0.547,-1.148,0.134,0.169,0.485,0.114,-0.339,0.037,-0.341,-0.665,0.041
'0:00.408',-0.035,-1.166,-1.131,0.600,0.548,-1.149,0.136,0.168,0.483,0.113,-0.339,0.036,-0.341,-0.663,0.041
'0:00.409',-0.035,-1.167,-1.132,0.602,0.548,-1.150,0.134,0.167,0.484,0.112,-0.341,0.036,-0.340,-0.664,0.039
'0:00.410',-0.035,-1.165,-1.131,0.600,0.548,-1.148,0.131,0.166,0.482,0.108,-0.342,0.036,-0.341,-0.668,0.033
'0:00.411',-0.033,-1.166,-1.133,0.599,0.550,-1.149,0.132,0.166,0.482,0.108,-0.339,0.037,-0.341,-0.666,0.033
'0:00.412',-0.035,-1.171,-1.135,0.602,0.551,-1.153,0.135,0.167,0.483,0.111,-0.339,0.038,-0.341,-0.667,0.039
'0:00.413',-0.035,-1.173,-1.138,0.604,0.552,-1.155,0.137,0.169,0.483,0.111,-0.339,0.037,-0.344,-0.672,0.042
'0:00.414',-0.033,-1.174,-1.141,0.603,0.554,-1.157,0.137,0.170,0.485,0.115,-0.339,0.039,-0.343,-0.673,0.043
'0:00.415',-0.035,-1.173,-1.139,0.603,0.552,-1.155,0.137,0.168,0.484,0.113,-0.339,0.038,-0.342,-0.671,0.043
'0:00.416',-0.035,-1.173,-1.139,0.604,0.552,-1.156,0.137,0.169,0.484,0.113,-0.338,0.038,-0.342,-0.671,0.043
'0:00.417',-0.034,-1.174,-1.139,0.604,0.553,-1.157,0.137,0.170,0.483,0.113,-0.339,0.038,-0.342,-0.672,0.044
'0:00.418',-0.034,-1.173,-1.139,0.603,0.553,-1.157,0.136,0.169,0.483,0.112,-0.339,0.037,-0.343,-0.670,0.047
'0:00.419',-0.033,-1.172,-1.140,0.602,0.554,-1.156,0.136,0.169,0.481,0.111,-0.339,0.036,-0.344,-0.673,0.044
'0:00.420',-0.033,-1.171,-1.137,0.602,0.552,-1.153,0.136,0.167,0.479,0.110,-0.341,0.034,-0.346,-0.675,0.042
'0:00.421',-0.034,-1.169,-1.135,0.601,0.551,-1.153,0.137,0.169,0.481,0.112,-0.340,0.034,-0.346,-0.675,0.044
'0:00.422',-0.035,-1.171,-1.137,0.603,0.551,-1.154,0.136,0.167,0.480,0.110,-0.340,0.033,-0.346,-0.678,0.045
'0:00.423',-0.037,-1.172,-1.134,0.605,0.548,-1.153,0.135,0.165,0.479,0.108,-0.343,0.032,-0.346,-0.674,0.045
'0:00.424',-0.037,-1.169,-1.132,0.603,0.547,-1.151,0.133,0.166,0.476,0.105,-0.344,0.029,-0.347,-0.670,0.044
'0:00.425',-0.039,-1.167,-1.129,0.603,0.545,-1.149,0.134,0.165,0.475,0.104,-0.345,0.029,-0.348,-0.672,0.044
'0:00.426',-0.035,-1.165,-1.130,0.600,0.547,-1.148,0.136,0.166,0.478,0.106,-0.343,0.032,-0.345,-0.673,0.046
'0:00.427',-0.035,-1.167,-1.131,0.601,0.548,-1.149,0.133,0.165,0.476,0.106,-0.344,0.029,-0.347,-0.671,0.045
'0:00.428',-0.038,-1.169,-1.131,0.604,0.546,-1.150,0.134,0.165,0.478,0.107,-0.345,0.029,-0.348,-0.670,0.045
'0:00.429',-0.037,-1.169,-1.131,0.603,0.547,-1.151,0.133,0.163,0.475,0.105,-0.346,0.028,-0.347,-0.669,0.045
'0:00.430',-0.042,-1.169,-1.127,0.605,0.543,-1.149,0.136,0.162,0.472,0.103,-0.347,0.027,-0.348,-0.668,0.043
'0:00.431',-0.042,-1.171,-1.128,0.606,0.543,-1.149,0.134,0.161,0.472,0.101,-0.347,0.026,-0.348,-0.668,0.044
'0:00.432',-0.041,-1.171,-1.130,0.606,0.545,-1.151,0.130,0.159,0.471,0.100,-0.348,0.027,-0.347,-0.670,0.045
'0:00.433',-0.043,-1.171,-1.129,0.607,0.543,-1.150,0.135,0.163,0.473,0.105,-0.345,0.030,-0.347,-0.675,0.047
'0:00.434',-0.041,-1.169,-1.129,0.605,0.544,-1.149,0.135,0.163,0.472,0.105,-0.344,0.028,-0.349,-0.671,0.046
'0:00.435',-0.038,-1.169,-1.131,0.604,0.546,-1.151,0.136,0.161,0.472,0.103,-0.346,0.028,-0.349,-0.666,0.046
'0:00.436',-0.040,-1.168,-1.129,0.604,0.545,-1.149,0.136,0.161,0.472,0.102,-0.347,0.028,-0.348,-0.667,0.045
'0:00.437',-0.039,-1.167,-1.129,0.603,0.545,-1.147,0.135,0.161,0.473,0.103,-0.345,0.029,-0.348,-0.670,0.045
'0:00.438',-0.037,-1.167,-1.131,0.602,0.547,-1.149,0.135,0.160,0.471,0.102,-0.345,0.028,-0.349,-0.669,0.046
'0:00.439',-0.035,-1.167,-1.132,0.600,0.549,-1.149,0.134,0.161,0.472,0.101,-0.347,0.026,-0.350,-0.670,0.048
'0:00.440',-0.033,-1.169,-1.137,0.601,0.552,-1.153,0.135,0.163,0.473,0.102,-0.346,0.028,-0.351,-0.676,0.050
'0:00.441',-0.034,-1.169,-1.135,0.601,0.551,-1.153,0.135,0.163,0.472,0.102,-0.346,0.024,-0.353,-0.678,0.048
'0:00.442',-0.036,-1.169,-1.133,0.603,0.548,-1.151,0.136,0.161,0.471,0.101,-0.347,0.025,-0.353,-0.677,0.046
'0:00.443',-0.037,-1.169,-1.131,0.603,0.547,-1.150,0.133,0.160,0.471,0.099,-0.346,0.025,-0.352,-0.677,0.046
'0:00.444',-0.037,-1.171,-1.133,0.604,0.548,-1.152,0.135,0.161,0.470,0.098,-0.348,0.025,-0.352,-0.675,0.046
'0:00.445',-0.035,-1.171,-1.135,0.602,0.551,-1.153,0.136,0.161,0.469,0.097,-0.350,0.024,-0.354,-0.674,0.045
'0:00.446',-0.034,-1.169,-1.137,0.601,0.552,-1.153,0.133,0.160,0.469,0.097,-0.352,0.021,-0.355,-0.672,0.051
'0:00.447',-0.039,-1.173,-1.133,0.606,0.548,-1.153,0.135,0.160,0.469,0.098,-0.351,0.023,-0.355,-0.670,0.054
'0:00.448',-0.039,-1.174,-1.135,0.606,0.548,-1.155,0.135,0.159,0.470,0.097,-0.350,0.025,-0.353,-0.674,0.046
'0:00.449',-0.035,-1.174,-1.138,0.605,0.551,-1.156,0.134,0.159,0.469,0.098,-0.352,0.023,-0.354,-0.676,0.042
'0:00.450',-0.035,-1.173,-1.137,0.604,0.551,-1.155,0.134,0.158,0.468,0.095,-0.353,0.020,-0.356,-0.675,0.043
'0:00.451',-0.037,-1.173,-1.135,0.605,0.549,-1.154,0.133,0.156,0.466,0.091,-0.355,0.020,-0.356,-0.673,0.044
'0:00.452',-0.041,-1.172,-1.131,0.606,0.546,-1.152,0.132,0.155,0.463,0.092,-0.354,0.021,-0.355,-0.675,0.043
'0:00.453',-0.041,-1.175,-1.135,0.608,0.547,-1.155,0.134,0.158,0.466,0.093,-0.353,0.022,-0.355,-0.680,0.043
'0:00.454',-0.037,-1.171,-1.134,0.604,0.549,-1.153,0.136,0.158,0.467,0.094,-0.353,0.021,-0.355,-0.681,0.043
'0:00.455',-0.037,-1.169,-1.131,0.603,0.547,-1.151,0.135,0.157,0.466,0.093,-0.354,0.019,-0.356,-0.680,0.038
'0:00.456',-0.037,-1.170,-1.133,0.604,0.548,-1.151,0.135,0.157,0.465,0.093,-0.353,0.021,-0.355,-0.679,0.041
'0:00.457',-0.038,-1.171,-1.133,0.605,0.548,-1.153,0.134,0.157,0.464,0.095,-0.352,0.021,-0.355,-0.679,0.046
'0:00.458',-0.040,-1.177,-1.137,0.609,0.549,-1.157,0.133,0.157,0.465,0.094,-0.351,0.021,-0.355,-0.680,0.049
'0:00.459',-0.039,-1.175,-1.135,0.607,0.548,-1.155,0.134,0.158,0.465,0.093,-0.352,0.021,-0.354,-0.678,0.049
'0:00.460',-0.041,-1.173,-1.131,0.606,0.546,-1.152,0.136,0.158,0.467,0.096,-0.353,0.022,-0.356,-0.680,0.048
'0:00.461',-0.042,-1.176,-1.133,0.609,0.546,-1.155,0.137,0.157,0.465,0.095,-0.353,0.021,-0.357,-0.682,0.049
'0:00.462',-0.042,-1.174,-1.133,0.608,0.545,-1.153,0.134,0.157,0.464,0.093,-0.354,0.019,-0.357,-0.679,0.049
'0:00.463',-0.044,-1.175,-1.131,0.609,0.544,-1.153,0.133,0.154,0.462,0.091,-0.356,0.019,-0.355,-0.677,0.049
'0:00.464',-0.048,-1.177,-1.129,0.612,0.541,-1.153,0.132,0.151,0.460,0.088,-0.358,0.017,-0.357,-0.674,0.049
'0:00.465',-0.045,-1.177,-1.131,0.611,0.542,-1.153,0.128,0.150,0.459,0.087,-0.358,0.015,-0.358,-0.675,0.049
'0:00.466',-0.044,-1.175,-1.131,0.610,0.544,-1.153,0.129,0.150,0.459,0.088,-0.358,0.013,-0.358,-0.673,0.050
'0:00.467',-0.043,-1.173,-1.129,0.608,0.543,-1.151,0.134,0.152,0.461,0.090,-0.357,0.017,-0.357,-0.671,0.049
'0:00.468',-0.045,-1.179,-1.133,0.612,0.543,-1.155,0.134,0.152,0.459,0.089,-0.355,0.018,-0.358,-0.675,0.050
'0:00.469',-0.048,-1.181,-1.132,0.614,0.542,-1.157,0.133,0.152,0.459,0.089,-0.355,0.017,-0.357,-0.674,0.051
'0:00.470',-0.048,-1.183,-1.135,0.615,0.544,-1.159,0.132,0.151,0.459,0.088,-0.355,0.017,-0.358,-0.676,0.049
'0:00.471',-0.048,-1.187,-1.139,0.617,0.546,-1.163,0.133,0.150,0.458,0.087,-0.355,0.017,-0.358,-0.675,0.050
'0:00.472',-0.045,-1.183,-1.137,0.614,0.546,-1.160,0.134,0.152,0.459,0.088,-0.355,0.018,-0.357,-0.676,0.045
'0:00.473',-0.041,-1.178,-1.137,0.609,0.548,-1.157,0.134,0.153,0.459,0.089,-0.356,0.018,-0.359,-0.680,0.041
'0:00.474',-0.041,-1.177,-1.137,0.609,0.548,-1.157,0.134,0.153,0.460,0.090,-0.355,0.020,-0.358,-0.680,0.045
'0:00.475',-0.041,-1.180,-1.139,0.610,0.549,-1.159,0.134,0.154,0.459,0.090,-0.356,0.018,-0.358,-0.681,0.050
'0:00.476',-0.040,-1.179,-1.139,0.609,0.549,-1.159,0.134,0.154,0.458,0.089,-0.358,0.017,-0.358,-0.679,0.050
'0:00.477',-0.041,-1.177,-1.136,0.608,0.548,-1.156,0.134,0.153,0.460,0.090,-0.358,0.018,-0.357,-0.680,0.049
'0:00.478',-0.040,-1.176,-1.136,0.608,0.548,-1.156,0.133,0.154,0.460,0.092,-0.358,0.018,-0.355,-0.680,0.048
'0:00.479',-0.041,-1.179,-1.138,0.610,0.549,-1.159,0.131,0.154,0.457,0.091,-0.359,0.017,-0.358,-0.684,0.045
'0:00.480',-0.042,-1.179,-1.137,0.611,0.548,-1.159,0.133,0.153,0.457,0.090,-0.358,0.017,-0.362,-0.686,0.041
'0:00.481',-0.043,-1.177,-1.134,0.609,0.546,-1.155,0.134,0.154,0.458,0.090,-0.358,0.018,-0.360,-0.684,0.037
'0:00.482',-0.045,-1.179,-1.134,0.612,0.544,-1.157,0.133,0.153,0.456,0.089,-0.359,0.016,-0.361,-0.684,0.040
'0:00.483',-0.048,-1.181,-1.133,0.614,0.542,-1.157,0.133,0.151,0.454,0.086,-0.360,0.013,-0.361,-0.679,0.047
'0:00.484',-0.044,-1.183,-1.138,0.613,0.547,-1.160,0.132,0.150,0.455,0.087,-0.359,0.013,-0.360,-0.677,0.055
'0:00.485',-0.042,-1.181,-1.139,0.612,0.548,-1.159,0.133,0.151,0.456,0.088,-0.357,0.015,-0.361,-0.675,0.060
'0:00.486',-0.044,-1.175,-1.131,0.610,0.543,-1.153,0.133,0.152,0.455,0.086,-0.357,0.016,-0.362,-0.671,0.058
'0:00.487',-0.043,-1.173,-1.131,0.608,0.544,-1.151,0.133,0.150,0.456,0.086,-0.358,0.015,-0.362,-0.672,0.056
'0:00.488',-0.042,-1.175,-1.133,0.608,0.546,-1.154,0.132,0.150,0.456,0.087,-0.358,0.015,-0.360,-0.674,0.051
'0:00.489',-0.042,-1.179,-1.136,0.610,0.547,-1.157,0.134,0.151,0.456,0.086,-0.358,0.016,-0.360,-0.674,0.049
'0:00.490',-0.041,-1.179,-1.139,0.610,0.549,-1.159,0.133,0.151,0.456,0.086,-0.357,0.015,-0.360,-0.672,0.050
'0:00.491',-0.043,-1.181,-1.139,0.612,0.548,-1.160,0.129,0.149,0.454,0.082,-0.358,0.013,-0.360,-0.672,0.049
'0:00.492',-0.045,-1.185,-1.140,0.615,0.547,-1.163,0.131,0.149,0.454,0.083,-0.359,0.013,-0.361,-0.675,0.050
'0:00.493',-0.049,-1.185,-1.137,0.617,0.544,-1.161,0.132,0.150,0.454,0.086,-0.357,0.015,-0.361,-0.678,0.051
'0:00.494',-0.051,-1.183,-1.133,0.616,0.541,-1.157,0.134,0.150,0.455,0.087,-0.358,0.015,-0.362,-0.679,0.053
'0:00.495',-0.051,-1.183,-1.133,0.617,0.541,-1.158,0.134,0.149,0.455,0.086,-0.360,0.014,-0.363,-0.676,0.057
'0:00.496',-0.047,-1.183,-1.136,0.615,0.544,-1.159,0.133,0.149,0.454,0.085,-0.361,0.013,-0.363,-0.675,0.057
'0:00.497',-0.046,-1.181,-1.135,0.614,0.544,-1.158,0.134,0.151,0.455,0.086,-0.361,0.014,-0.362,-0.675,0.056
'0:00.498',-0.048,-1.183,-1.135,0.615,0.543,-1.159,0.134,0.151,0.455,0.086,-0.361,0.013,-0.363,-0.675,0.054
'0:00.499',-0.044,-1.181,-1.137,0.613,0.546,-1.159,0.137,0.151,0.454,0.086,-0.361,0.015,-0.363,-0.679,0.053
'0:00.500',-0.042,-1.178,-1.135,0.610,0.547,-1.157,0.138,0.151,0.456,0.088,-0.361,0.014,-0.363,-0.680,0.053
'0:00.501',-0.040,-1.177,-1.136,0.608,0.548,-1.156,0.137,0.152,0.455,0.089,-0.361,0.015,-0.362,-0.680,0.052
'0:00.502',-0.041,-1.177,-1.137,0.608,0.548,-1.157,0.135,0.152,0.455,0.088,-0.362,0.014,-0.361,-0.678,0.054
'0:00.503',-0.043,-1.177,-1.133,0.610,0.545,-1.155,0.132,0.148,0.453,0.085,-0.363,0.011,-0.361,-0.673,0.053
'0:00.504',-0.044,-1.177,-1.133,0.610,0.544,-1.155,0.131,0.145,0.451,0.083,-0.365,0.010,-0.361,-0.673,0.051
'0:00.505',-0.043,-1.175,-1.131,0.609,0.544,-1.153,0.130,0.146,0.452,0.083,-0.366,0.011,-0.360,-0.672,0.049
'0:00.506',-0.043,-1.175,-1.131,0.609,0.544,-1.153,0.130,0.145,0.450,0.082,-0.366,0.011,-0.361,-0.672,0.049
'0:00.507',-0.045,-1.173,-1.128,0.609,0.541,-1.151,0.130,0.144,0.448,0.081,-0.367,0.009,-0.362,-0.670,0.049
'0:00.508',-0.044,-1.169,-1.125,0.607,0.540,-1.147,0.129,0.143,0.449,0.081,-0.367,0.009,-0.361,-0.666,0.048
'0:00.509',-0.046,-1.169,-1.123,0.608,0.538,-1.146,0.127,0.143,0.448,0.079,-0.368,0.008,-0.360,-0.665,0.045
'0:00.510',-0.046,-1.170,-1.123,0.608,0.538,-1.147,0.126,0.143,0.447,0.078,-0.369,0.007,-0.360,-0.662,0.049
'0:00.511',-0.046,-1.177,-1.131,0.611,0.542,-1.153,0.128,0.143,0.447,0.077,-0.367,0.009,-0.361,-0.665,0.051
'0:00.512',-0.049,-1.185,-1.137,0.617,0.544,-1.161,0.128,0.144,0.447,0.079,-0.365,0.009,-0.362,-0.669,0.053
'0:00.513',-0.048,-1.183,-1.136,0.616,0.544,-1.160,0.129,0.145,0.448,0.081,-0.365,0.011,-0.361,-0.669,0.054
'0:00.514',-0.046,-1.179,-1.133,0.613,0.544,-1.157,0.130,0.148,0.449,0.083,-0.362,0.011,-0.361,-0.672,0.053
'0:00.515',-0.044,-1.179,-1.134,0.611,0.545,-1.156,0.131,0.149,0.451,0.084,-0.360,0.013,-0.362,-0.669,0.053
'0:00.516',-0.043,-1.177,-1.133,0.610,0.545,-1.155,0.132,0.148,0.450,0.084,-0.360,0.011,-0.363,-0.668,0.051
'0:00.517',-0.046,-1.178,-1.131,0.612,0.542,-1.155,0.132,0.148,0.449,0.083,-0.363,0.010,-0.362,-0.671,0.051
'0:00.518',-0.044,-1.178,-1.133,0.611,0.544,-1.155,0.132,0.147,0.450,0.082,-0.363,0.011,-0.362,-0.671,0.053
'0:00.519',-0.042,-1.173,-1.131,0.608,0.544,-1.152,0.131,0.150,0.452,0.085,-0.363,0.011,-0.362,-0.672,0.051
'0:00.520',-0.041,-1.173,-1.132,0.607,0.545,-1.153,0.132,0.152,0.452,0.085,-0.362,0.012,-0.362,-0.676,0.052
'0:00.521',-0.041,-1.177,-1.135,0.609,0.547,-1.156,0.131,0.150,0.450,0.085,-0.362,0.009,-0.365,-0.682,0.050
'0:00.522',-0.043,-1.175,-1.132,0.609,0.545,-1.154,0.131,0.150,0.453,0.086,-0.361,0.009,-0.364,-0.679,0.050
'0:00.523',-0.043,-1.175,-1.132,0.609,0.545,-1.153,0.132,0.148,0.454,0.083,-0.363,0.010,-0.364,-0.671,0.053
'0:00.524',-0.048,-1.177,-1.129,0.612,0.541,-1.153,0.129,0.146,0.450,0.080,-0.365,0.009,-0.364,-0.670,0.054
'0:00.525',-0.051,-1.177,-1.125,0.613,0.537,-1.151,0.130,0.145,0.447,0.079,-0.364,0.008,-0.365,-0.669,0.053
'0:00.526',-0.051,-1.177,-1.127,0.614,0.538,-1.152,0.130,0.144,0.447,0.080,-0.365,0.006,-0.365,-0.671,0.053
'0:00.527',-0.050,-1.177,-1.127,0.613,0.538,-1.151,0.131,0.146,0.450,0.082,-0.363,0.009,-0.364,-0.673,0.052
'0:00.528',-0.049,-1.174,-1.125,0.611,0.538,-1.149,0.135,0.147,0.451,0.083,-0.360,0.011,-0.362,-0.669,0.052
'0:00.529',-0.049,-1.179,-1.129,0.614,0.540,-1.154,0.131,0.147,0.451,0.083,-0.361,0.011,-0.363,-0.671,0.054
'0:00.530',-0.046,-1.177,-1.131,0.612,0.542,-1.154,0.130,0.146,0.449,0.081,-0.363,0.011,-0.363,-0.667,0.055
'0:00.531',-0.044,-1.176,-1.132,0.610,0.544,-1.154,0.131,0.146,0.448,0.080,-0.362,0.008,-0.364,-0.663,0.056
'0:00.532',-0.041,-1.177,-1.135,0.609,0.547,-1.156,0.130,0.146,0.450,0.079,-0.360,0.008,-0.364,-0.664,0.056
'0:00.533',-0.040,-1.173,-1.133,0.606,0.547,-1.153,0.132,0.147,0.450,0.080,-0.360,0.009,-0.364,-0.664,0.054
'0:00.534',-0.042,-1.175,-1.133,0.609,0.545,-1.154,0.133,0.148,0.451,0.083,-0.359,0.009,-0.365,-0.669,0.054
'0:00.535',-0.044,-1.175,-1.131,0.610,0.543,-1.153,0.134,0.148,0.451,0.083,-0.360,0.008,-0.366,-0.670,0.054
'0:00.536',-0.047,-1.178,-1.131,0.612,0.542,-1.154,0.133,0.147,0.449,0.083,-0.363,0.008,-0.365,-0.672,0.054
'0:00.537',-0.045,-1.179,-1.133,0.612,0.544,-1.155,0.133,0.146,0.450,0.081,-0.362,0.008,-0.365,-0.672,0.054
'0:00.538',-0.045,-1.176,-1.131,0.611,0.542,-1.153,0.133,0.146,0.448,0.080,-0.364,0.006,-0.366,-0.672,0.055
'0:00.539',-0.046,-1.177,-1.130,0.612,0.542,-1.153,0.132,0.146,0.447,0.081,-0.364,0.007,-0.365,-0.676,0.053
'0:00.540',-0.043,-1.177,-1.133,0.610,0.544,-1.155,0.131,0.148,0.449,0.082,-0.361,0.009,-0.364,-0.671,0.053
'0:00.541',-0.046,-1.177,-1.131,0.612,0.543,-1.154,0.130,0.146,0.447,0.082,-0.363,0.006,-0.366,-0.673,0.054
'0:00.542',-0.044,-1.174,-1.129,0.609,0.542,-1.151,0.132,0.148,0.449,0.082,-0.364,0.006,-0.366,-0.672,0.053
'0:00.543',-0.046,-1.175,-1.129,0.610,0.541,-1.151,0.132,0.149,0.449,0.081,-0.363,0.007,-0.364,-0.669,0.054
'0:00.544',-0.046,-1.179,-1.133,0.613,0.543,-1.155,0.129,0.141,0.444,0.075,-0.365,0.003,-0.367,-0.672,0.052
'0:00.545',-0.045,-1.179,-1.134,0.612,0.545,-1.157,0.129,0.143,0.446,0.077,-0.363,0.003,-0.369,-0.673,0.052
'0:00.546',-0.052,-1.180,-1.127,0.616,0.538,-1.153,0.131,0.145,0.447,0.079,-0.364,0.006,-0.368,-0.673,0.055
'0:00.547',-0.053,-1.179,-1.125,0.616,0.536,-1.152,0.131,0.144,0.447,0.078,-0.363,0.006,-0.368,-0.674,0.051
'0:00.548',-0.049,-1.177,-1.127,0.613,0.539,-1.152,0.130,0.145,0.448,0.079,-0.363,0.006,-0.366,-0.673,0.049
'0:00.549',-0.045,-1.173,-1.127,0.609,0.541,-1.150,0.130,0.144,0.447,0.076,-0.366,0.006,-0.366,-0.669,0.050
'0:00.550',-0.047,-1.173,-1.125,0.610,0.539,-1.149,0.129,0.145,0.448,0.075,-0.364,0.005,-0.367,-0.664,0.058
'0:00.551',-0.049,-1.171,-1.123,0.610,0.537,-1.147,0.128,0.143,0.448,0.076,-0.364,0.007,-0.365,-0.660,0.062
'0:00.552',-0.048,-1.171,-1.124,0.609,0.538,-1.147,0.129,0.145,0.448,0.076,-0.363,0.007,-0.365,-0.665,0.058
'0:00.553',-0.044,-1.173,-1.129,0.609,0.543,-1.151,0.130,0.146,0.448,0.079,-0.363,0.006,-0.368,-0.670,0.052
'0:00.554',-0.045,-1.177,-1.131,0.611,0.543,-1.153,0.131,0.144,0.448,0.079,-0.363,0.007,-0.368,-0.674,0.054
'0:00.555',-0.048,-1.183,-1.135,0.616,0.544,-1.159,0.132,0.145,0.448,0.079,-0.361,0.009,-0.366,-0.678,0.060
'0:00.556',-0.048,-1.182,-1.134,0.615,0.543,-1.158,0.130,0.143,0.447,0.079,-0.362,0.008,-0.365,-0.680,0.051
'0:00.557',-0.051,-1.180,-1.129,0.615,0.540,-1.155,0.128,0.141,0.446,0.078,-0.363,0.007,-0.364,-0.680,0.046
'0:00.558',-0.048,-1.184,-1.137,0.616,0.545,-1.160,0.130,0.144,0.447,0.079,-0.363,0.008,-0.366,-0.680,0.052
'0:00.559',-0.047,-1.181,-1.135,0.614,0.544,-1.159,0.130,0.144,0.447,0.079,-0.363,0.007,-0.366,-0.680,0.052
'0:00.560',-0.047,-1.176,-1.129,0.611,0.541,-1.153,0.126,0.142,0.446,0.077,-0.365,0.005,-0.365,-0.677,0.052
'0:00.561',-0.048,-1.178,-1.130,0.613,0.541,-1.154,0.126,0.143,0.447,0.078,-0.365,0.006,-0.366,-0.679,0.051
'0:00.562',-0.051,-1.181,-1.129,0.616,0.539,-1.155,0.127,0.145,0.446,0.079,-0.364,0.006,-0.365,-0.679,0.052
'0:00.563',-0.050,-1.179,-1.129,0.615,0.540,-1.155,0.128,0.144,0.446,0.078,-0.364,0.006,-0.364,-0.675,0.052
'0:00.564',-0.050,-1.180,-1.129,0.615,0.540,-1.155,0.129,0.143,0.447,0.080,-0.361,0.008,-0.359,-0.674,0.053
'0:00.565',-0.051,-1.181,-1.131,0.616,0.540,-1.157,0.127,0.143,0.448,0.079,-0.361,0.008,-0.359,-0.673,0.054
'0:00.566',-0.053,-1.185,-1.131,0.619,0.539,-1.158,0.126,0.141,0.445,0.075,-0.365,0.005,-0.367,-0.672,0.050
'0:00.567',-0.054,-1.179,-1.125,0.617,0.536,-1.153,0.126,0.141,0.443,0.075,-0.365,0.004,-0.367,-0.671,0.044
'0:00.568',-0.051,-1.177,-1.127,0.614,0.538,-1.152,0.127,0.141,0.445,0.076,-0.363,0.004,-0.366,-0.671,0.048
'0:00.569',-0.051,-1.182,-1.131,0.617,0.540,-1.157,0.129,0.143,0.447,0.079,-0.363,0.005,-0.366,-0.672,0.053
'0:00.570',-0.048,-1.180,-1.131,0.614,0.542,-1.155,0.128,0.144,0.447,0.080,-0.362,0.007,-0.364,-0.667,0.054
'0:00.571',-0.048,-1.179,-1.131,0.613,0.542,-1.155,0.126,0.143,0.446,0.079,-0.360,0.008,-0.363,-0.666,0.055
'0:00.572',-0.051,-1.179,-1.127,0.615,0.538,-1.153,0.128,0.143,0.447,0.079,-0.359,0.007,-0.365,-0.669,0.054
'0:00.573',-0.050,-1.178,-1.129,0.614,0.539,-1.153,0.131,0.144,0.448,0.081,-0.359,0.009,-0.365,-0.672,0.052
'0:00.574',-0.048,-1.178,-1.131,0.613,0.541,-1.155,0.133,0.146,0.448,0.083,-0.358,0.010,-0.366,-0.674,0.052
'0:00.575',-0.045,-1.177,-1.131,0.611,0.543,-1.153,0.133,0.146,0.447,0.082,-0.358,0.010,-0.366,-0.674,0.053
'0:00.576',-0.047,-1.177,-1.131,0.612,0.542,-1.154,0.132,0.146,0.447,0.082,-0.359,0.009,-0.365,-0.676,0.052
'0:00.577',-0.046,-1.181,-1.134,0.613,0.544,-1.157,0.131,0.144,0.446,0.082,-0.359,0.009,-0.366,-0.677,0.052
'0:00.578',-0.046,-1.178,-1.132,0.612,0.543,-1.155,0.130,0.143,0.446,0.081,-0.361,0.009,-0.366,-0.674,0.052
'0:00.579',-0.049,-1.176,-1.127,0.612,0.539,-1.151,0.132,0.144,0.446,0.081,-0.362,0.009,-0.366,-0.673,0.053
'0:00.580',-0.048,-1.177,-1.130,0.613,0.541,-1.153,0.133,0.144,0.445,0.082,-0.361,0.009,-0.367,-0.676,0.053
'0:00.581',-0.046,-1.175,-1.128,0.610,0.541,-1.151,0.133,0.147,0.447,0.084,-0.359,0.011,-0.366,-0.675,0.053
'0:00.582',-0.045,-1.173,-1.127,0.609,0.541,-1.150,0.132,0.146,0.447,0.083,-0.360,0.011,-0.365,-0.675,0.054
'0:00.583',-0.044,-1.171,-1.127,0.608,0.541,-1.149,0.129,0.143,0.445,0.082,-0.360,0.011,-0.364,-0.674,0.052
'0:00.584',-0.043,-1.171,-1.127,0.607,0.541,-1.149,0.129,0.143,0.447,0.082,-0.358,0.013,-0.363,-0.673,0.054
'0:00.585',-0.045,-1.173,-1.127,0.609,0.541,-1.150,0.130,0.144,0.446,0.082,-0.360,0.013,-0.364,-0.673,0.056
'0:00.586',-0.044,-1.173,-1.128,0.609,0.542,-1.150,0.130,0.144,0.445,0.082,-0.362,0.009,-0.366,-0.672,0.054
'0:00.587',-0.044,-1.174,-1.129,0.609,0.543,-1.151,0.130,0.143,0.446,0.082,-0.361,0.011,-0.365,-0.672,0.053
'0:00.588',-0.044,-1.171,-1.127,0.608,0.541,-1.149,0.130,0.142,0.444,0.081,-0.360,0.013,-0.364,-0.673,0.048
'0:00.589',-0.045,-1.174,-1.129,0.609,0.542,-1.151,0.129,0.142,0.445,0.081,-0.359,0.010,-0.364,-0.673,0.050
'0:00.590',-0.048,-1.178,-1.130,0.613,0.541,-1.153,0.131,0.143,0.445,0.081,-0.359,0.011,-0.364,-0.674,0.052
'0:00.591',-0.047,-1.177,-1.130,0.612,0.541,-1.153,0.131,0.141,0.444,0.081,-0.360,0.013,-0.364,-0.674,0.044
'0:00.592',-0.049,-1.179,-1.129,0.614,0.540,-1.153,0.130,0.141,0.444,0.080,-0.359,0.011,-0.365,-0.679,0.036
'0:00.593',-0.050,-1.177,-1.127,0.613,0.538,-1.151,0.130,0.142,0.444,0.081,-0.359,0.011,-0.365,-0.680,0.038
'0:00.594',-0.049,-1.175,-1.126,0.612,0.538,-1.150,0.131,0.144,0.446,0.083,-0.358,0.011,-0.364,-0.676,0.046
'0:00.595',-0.049,-1.173,-1.123,0.611,0.538,-1.148,0.132,0.143,0.445,0.083,-0.358,0.011,-0.366,-0.674,0.050
'0:00.596',-0.048,-1.173,-1.125,0.610,0.538,-1.149,0.132,0.143,0.444,0.083,-0.357,0.010,-0.365,-0.671,0.050
'0:00.597',-0.045,-1.169,-1.123,0.607,0.539,-1.145,0.133,0.144,0.445,0.082,-0.358,0.011,-0.362,-0.667,0.050
'0:00.598',-0.044,-1.167,-1.121,0.606,0.539,-1.144,0.131,0.141,0.444,0.081,-0.360,0.009,-0.365,-0.666,0.051
'0:00.599',-0.047,-1.165,-1.117,0.606,0.535,-1.141,0.127,0.142,0.443,0.082,-0.359,0.009,-0.364,-0.668,0.049
'0:00.600',-0.048,-1.159,-1.111,0.603,0.532,-1.135,0.130,0.144,0.447,0.084,-0.357,0.012,-0.362,-0.667,0.046
'0:00.601',-0.046,-1.164,-1.117,0.605,0.535,-1.141,0.133,0.147,0.449,0.086,-0.354,0.017,-0.362,-0.669,0.048
'0:00.602',-0.044,-1.163,-1.118,0.604,0.537,-1.141,0.133,0.147,0.448,0.086,-0.355,0.015,-0.363,-0.668,0.051
'0:00.603',-0.046,-1.162,-1.115,0.604,0.534,-1.139,0.132,0.146,0.448,0.084,-0.358,0.013,-0.364,-0.665,0.053
'0:00.604',-0.048,-1.163,-1.116,0.606,0.534,-1.139,0.131,0.145,0.448,0.083,-0.359,0.014,-0.362,-0.662,0.053
'0:00.605',-0.049,-1.159,-1.111,0.604,0.531,-1.135,0.130,0.142,0.447,0.082,-0.360,0.012,-0.361,-0.657,0.054
'0:00.606',-0.050,-1.161,-1.111,0.606,0.531,-1.137,0.130,0.142,0.447,0.083,-0.360,0.013,-0.363,-0.659,0.052
'0:00.607',-0.051,-1.161,-1.111,0.606,0.530,-1.136,0.130,0.142,0.448,0.080,-0.361,0.011,-0.363,-0.658,0.048
'0:00.608',-0.051,-1.159,-1.109,0.604,0.529,-1.133,0.133,0.142,0.448,0.083,-0.358,0.014,-0.361,-0.653,0.046
'0:00.609',-0.049,-1.163,-1.115,0.606,0.533,-1.139,0.135,0.146,0.450,0.085,-0.356,0.015,-0.360,-0.653,0.051
'0:00.610',-0.049,-1.161,-1.112,0.605,0.531,-1.137,0.135,0.147,0.453,0.084,-0.356,0.017,-0.360,-0.648,0.052
'0:00.611',-0.050,-1.155,-1.105,0.602,0.528,-1.129,0.133,0.147,0.454,0.085,-0.353,0.018,-0.359,-0.643,0.050
'0:00.612',-0.049,-1.152,-1.103,0.600,0.527,-1.127,0.133,0.149,0.454,0.086,-0.352,0.018,-0.358,-0.641,0.050
'0:00.613',-0.044,-1.145,-1.101,0.595,0.528,-1.123,0.134,0.150,0.456,0.090,-0.349,0.022,-0.356,-0.638,0.048
'0:00.614',-0.045,-1.143,-1.097,0.594,0.526,-1.119,0.135,0.152,0.458,0.093,-0.348,0.023,-0.355,-0.635,0.047
'0:00.615',-0.047,-1.141,-1.093,0.593,0.523,-1.117,0.136,0.153,0.460,0.096,-0.347,0.025,-0.353,-0.628,0.046
'0:00.616',-0.043,-1.135,-1.092,0.589,0.524,-1.114,0.138,0.154,0.463,0.098,-0.344,0.026,-0.352,-0.625,0.042
'0:00.617',-0.046,-1.134,-1.088,0.590,0.521,-1.111,0.141,0.157,0.464,0.098,-0.344,0.027,-0.352,-0.623,0.043
'0:00.618',-0.050,-1.127,-1.077,0.588,0.514,-1.102,0.141,0.157,0.466,0.101,-0.342,0.030,-0.351,-0.618,0.043
'0:00.619',-0.051,-1.121,-1.071,0.586,0.510,-1.095,0.143,0.157,0.469,0.103,-0.340,0.030,-0.352,-0.615,0.040
'0:00.620',-0.051,-1.117,-1.067,0.584,0.509,-1.093,0.145,0.158,0.470,0.105,-0.339,0.033,-0.351,-0.612,0.040
'0:00.621',-0.050,-1.113,-1.063,0.582,0.507,-1.089,0.147,0.160,0.472,0.109,-0.337,0.034,-0.353,-0.613,0.036
'0:00.622',-0.051,-1.111,-1.060,0.581,0.505,-1.085,0.148,0.160,0.472,0.109,-0.337,0.034,-0.352,-0.608,0.034
'0:00.623',-0.056,-1.111,-1.056,0.583,0.500,-1.083,0.144,0.157,0.470,0.107,-0.339,0.034,-0.351,-0.600,0.033
'0:00.624',-0.057,-1.110,-1.054,0.583,0.499,-1.082,0.145,0.155,0.471,0.107,-0.339,0.031,-0.355,-0.599,0.029
'0:00.625',-0.054,-1.108,-1.054,0.581,0.500,-1.081,0.147,0.157,0.471,0.106,-0.339,0.033,-0.354,-0.599,0.026
'0:00.626',-0.056,-1.107,-1.052,0.582,0.498,-1.079,0.145,0.159,0.470,0.106,-0.340,0.033,-0.354,-0.601,0.025
'0:00.627',-0.056,-1.109,-1.052,0.582,0.498,-1.081,0.147,0.161,0.472,0.108,-0.338,0.034,-0.352,-0.604,0.025
'0:00.628',-0.053,-1.114,-1.061,0.584,0.504,-1.087,0.148,0.161,0.471,0.108,-0.337,0.033,-0.351,-0.606,0.025
'0:00.629',-0.052,-1.117,-1.065,0.584,0.507,-1.091,0.148,0.162,0.473,0.108,-0.338,0.033,-0.349,-0.610,0.022
'0:00.630',-0.051,-1.113,-1.062,0.582,0.506,-1.088,0.149,0.166,0.475,0.110,-0.336,0.036,-0.346,-0.604,0.021
'0:00.631',-0.047,-1.110,-1.063,0.578,0.508,-1.087,0.149,0.167,0.475,0.108,-0.336,0.037,-0.345,-0.601,0.023
'0:00.632',-0.048,-1.111,-1.063,0.580,0.508,-1.087,0.148,0.166,0.476,0.110,-0.336,0.037,-0.345,-0.604,0.025
'0:00.633',-0.048,-1.110,-1.062,0.579,0.508,-1.086,0.149,0.168,0.477,0.114,-0.332,0.040,-0.346,-0.608,0.025
'0:00.634',-0.041,-1.105,-1.063,0.573,0.511,-1.084,0.148,0.170,0.479,0.115,-0.331,0.039,-0.346,-0.607,0.024
'0:00.635',-0.037,-1.101,-1.064,0.570,0.513,-1.083,0.146,0.170,0.480,0.116,-0.332,0.038,-0.346,-0.599,0.022
'0:00.636',-0.036,-1.100,-1.063,0.568,0.514,-1.082,0.144,0.169,0.479,0.116,-0.332,0.041,-0.344,-0.597,0.021
'0:00.637',-0.038,-1.100,-1.062,0.569,0.512,-1.081,0.141,0.168,0.479,0.116,-0.333,0.041,-0.344,-0.598,0.023
'0:00.638',-0.042,-1.095,-1.054,0.569,0.506,-1.075,0.141,0.165,0.479,0.115,-0.333,0.040,-0.345,-0.595,0.027
'0:00.639',-0.040,-1.089,-1.049,0.565,0.504,-1.069,0.142,0.167,0.480,0.117,-0.330,0.040,-0.346,-0.592,0.028
'0:00.640',-0.039,-1.084,-1.045,0.561,0.503,-1.065,0.145,0.173,0.484,0.122,-0.328,0.043,-0.345,-0.587,0.021
'0:00.641',-0.040,-1.080,-1.040,0.560,0.500,-1.060,0.148,0.173,0.489,0.126,-0.325,0.047,-0.344,-0.582,0.019
'0:00.642',-0.043,-1.077,-1.034,0.559,0.496,-1.055,0.147,0.171,0.490,0.129,-0.322,0.051,-0.344,-0.578,0.018
'0:00.643',-0.046,-1.069,-1.022,0.557,0.488,-1.045,0.145,0.165,0.487,0.126,-0.322,0.051,-0.346,-0.569,0.018
'0:00.644',-0.048,-1.062,-1.014,0.554,0.483,-1.038,0.140,0.159,0.483,0.124,-0.320,0.049,-0.345,-0.560,0.022
'0:00.645',-0.046,-1.054,-1.008,0.550,0.481,-1.032,0.134,0.154,0.481,0.126,-0.318,0.050,-0.345,-0.553,0.025
'0:00.646',-0.047,-1.052,-1.004,0.549,0.479,-1.028,0.128,0.148,0.479,0.123,-0.319,0.051,-0.351,-0.549,0.026
'0:00.647',-0.048,-1.046,-0.999,0.546,0.476,-1.022,0.122,0.143,0.478,0.123,-0.317,0.052,-0.350,-0.538,0.029
'0:00.648',-0.043,-1.040,-0.998,0.541,0.478,-1.019,0.121,0.146,0.482,0.129,-0.310,0.059,-0.346,-0.533,0.029
'0:00.649',-0.043,-1.040,-0.997,0.541,0.477,-1.018,0.119,0.147,0.484,0.132,-0.307,0.061,-0.344,-0.534,0.029
'0:00.650',-0.042,-1.036,-0.994,0.539,0.476,-1.015,0.114,0.146,0.483,0.131,-0.306,0.065,-0.340,-0.527,0.035
'0:00.651',-0.041,-1.034,-0.994,0.536,0.477,-1.014,0.110,0.144,0.483,0.132,-0.304,0.066,-0.339,-0.523,0.037
'0:00.652',-0.039,-1.032,-0.993,0.535,0.477,-1.012,0.105,0.142,0.483,0.132,-0.303,0.065,-0.338,-0.521,0.043
'0:00.653',-0.035,-1.028,-0.993,0.531,0.479,-1.010,0.103,0.144,0.483,0.133,-0.302,0.066,-0.338,-0.523,0.044
'0:00.654',-0.032,-1.028,-0.997,0.529,0.483,-1.012,0.101,0.146,0.480,0.132,-0.304,0.064,-0.336,-0.531,0.040
'0:00.655',-0.030,-1.032,-1.002,0.531,0.486,-1.018,0.096,0.144,0.479,0.131,-0.306,0.064,-0.335,-0.536,0.041
'0:00.656',-0.028,-1.038,-1.010,0.532,0.491,-1.024,0.087,0.143,0.477,0.129,-0.305,0.061,-0.335,-0.541,0.047
'0:00.657',-0.024,-1.044,-1.019,0.533,0.497,-1.031,0.080,0.140,0.474,0.127,-0.305,0.061,-0.334,-0.543,0.060
'0:00.658',-0.024,-1.042,-1.018,0.532,0.497,-1.030,0.080,0.140,0.476,0.128,-0.303,0.062,-0.331,-0.541,0.065
'0:00.659',-0.022,-1.038,-1.016,0.529,0.497,-1.026,0.080,0.141,0.474,0.128,-0.305,0.059,-0.330,-0.543,0.062
'0:00.660',-0.019,-1.036,-1.016,0.527,0.498,-1.026,0.081,0.141,0.474,0.127,-0.304,0.059,-0.331,-0.544,0.060
'0:00.661',-0.018,-1.037,-1.020,0.526,0.501,-1.028,0.080,0.141,0.474,0.127,-0.304,0.059,-0.331,-0.549,0.061
'0:00.662',-0.016,-1.042,-1.026,0.528,0.505,-1.034,0.080,0.138,0.470,0.121,-0.308,0.056,-0.331,-0.553,0.061
'0:00.663',-0.016,-1.044,-1.028,0.529,0.506,-1.036,0.077,0.134,0.465,0.116,-0.310,0.052,-0.331,-0.552,0.064
'0:00.664',-0.018,-1.047,-1.030,0.532,0.506,-1.038,0.075,0.131,0.461,0.112,-0.312,0.050,-0.332,-0.554,0.069
'0:00.665',-0.021,-1.052,-1.032,0.536,0.506,-1.042,0.077,0.132,0.460,0.112,-0.310,0.050,-0.333,-0.556,0.071
'0:00.666',-0.019,-1.052,-1.032,0.535,0.507,-1.042,0.074,0.129,0.456,0.110,-0.311,0.049,-0.332,-0.557,0.075
'0:00.667',-0.014,-1.050,-1.036,0.531,0.511,-1.042,0.071,0.128,0.456,0.110,-0.309,0.050,-0.329,-0.558,0.075
'0:00.668',-0.009,-1.051,-1.042,0.530,0.516,-1.046,0.068,0.129,0.457,0.112,-0.307,0.052,-0.326,-0.560,0.075
'0:00.669',-0.009,-1.054,-1.045,0.530,0.518,-1.050,0.069,0.131,0.459,0.113,-0.306,0.054,-0.322,-0.564,0.073
'0:00.670',-0.004,-1.056,-1.052,0.530,0.524,-1.054,0.070,0.137,0.464,0.117,-0.303,0.057,-0.315,-0.566,0.070
'0:00.671',0.001,-1.058,-1.059,0.528,0.530,-1.058,0.072,0.139,0.466,0.118,-0.305,0.056,-0.314,-0.568,0.068
'0:00.672',-0.001,-1.063,-1.063,0.532,0.531,-1.063,0.073,0.141,0.468,0.119,-0.304,0.058,-0.314,-0.573,0.066
'0:00.673',-0.002,-1.067,-1.065,0.534,0.531,-1.065,0.074,0.144,0.469,0.123,-0.301,0.061,-0.309,-0.581,0.064
'0:00.674',-0.002,-1.069,-1.067,0.535,0.533,-1.068,0.080,0.147,0.473,0.127,-0.301,0.062,-0.307,-0.587,0.059
'0:00.675',-0.002,-1.073,-1.071,0.537,0.535,-1.073,0.083,0.153,0.478,0.132,-0.298,0.066,-0.303,-0.592,0.054
'0:00.676',0.004,-1.077,-1.080,0.536,0.542,-1.079,0.082,0.155,0.481,0.134,-0.296,0.068,-0.299,-0.594,0.055
'0:00.677',0.007,-1.081,-1.089,0.536,0.549,-1.085,0.080,0.157,0.481,0.136,-0.295,0.069,-0.295,-0.599,0.059
'0:00.678',0.007,-1.089,-1.097,0.540,0.552,-1.093,0.080,0.162,0.484,0.138,-0.294,0.070,-0.293,-0.607,0.056
'0:00.679',0.010,-1.092,-1.102,0.540,0.556,-1.097,0.080,0.162,0.485,0.137,-0.296,0.067,-0.294,-0.611,0.053
'0:00.680',0.013,-1.093,-1.107,0.540,0.560,-1.100,0.081,0.162,0.483,0.136,-0.298,0.066,-0.294,-0.620,0.054
'0:00.681',0.013,-1.101,-1.113,0.543,0.564,-1.107,0.083,0.162,0.484,0.137,-0.297,0.066,-0.294,-0.626,0.055
'0:00.682',0.013,-1.101,-1.113,0.543,0.564,-1.107,0.084,0.163,0.484,0.138,-0.298,0.065,-0.293,-0.622,0.054
'0:00.683',0.011,-1.101,-1.113,0.545,0.562,-1.107,0.084,0.164,0.484,0.136,-0.299,0.063,-0.293,-0.617,0.052
'0:00.684',0.006,-1.103,-1.109,0.548,0.558,-1.106,0.086,0.162,0.484,0.134,-0.296,0.063,-0.294,-0.617,0.050
'0:00.685',0.006,-1.103,-1.108,0.548,0.557,-1.105,0.088,0.164,0.485,0.135,-0.297,0.065,-0.294,-0.621,0.048
'0:00.686',0.007,-1.104,-1.111,0.548,0.559,-1.107,0.087,0.164,0.482,0.132,-0.299,0.064,-0.294,-0.623,0.048
'0:00.687',0.007,-1.105,-1.111,0.548,0.559,-1.108,0.088,0.165,0.484,0.133,-0.300,0.061,-0.296,-0.620,0.046
'0:00.688',0.001,-1.107,-1.107,0.552,0.554,-1.107,0.090,0.165,0.484,0.133,-0.301,0.060,-0.297,-0.617,0.047
'0:00.689',-0.005,-1.107,-1.103,0.556,0.548,-1.105,0.092,0.164,0.484,0.135,-0.297,0.065,-0.297,-0.614,0.048
'0:00.690',-0.007,-1.113,-1.105,0.559,0.549,-1.109,0.093,0.165,0.487,0.136,-0.296,0.066,-0.299,-0.616,0.049
'0:00.691',-0.011,-1.113,-1.102,0.562,0.545,-1.107,0.092,0.164,0.486,0.135,-0.297,0.067,-0.300,-0.611,0.051
'0:00.692',-0.013,-1.110,-1.097,0.561,0.542,-1.103,0.095,0.166,0.488,0.138,-0.293,0.070,-0.299,-0.608,0.052
'0:00.693',-0.013,-1.113,-1.101,0.562,0.544,-1.107,0.096,0.168,0.486,0.139,-0.294,0.070,-0.299,-0.616,0.052
'0:00.694',-0.011,-1.117,-1.107,0.563,0.548,-1.111,0.096,0.165,0.481,0.134,-0.298,0.067,-0.301,-0.618,0.058
'0:00.695',-0.011,-1.121,-1.109,0.566,0.549,-1.115,0.099,0.163,0.477,0.131,-0.301,0.060,-0.307,-0.622,0.059
'0:00.696',-0.014,-1.125,-1.111,0.570,0.549,-1.119,0.100,0.163,0.476,0.128,-0.303,0.059,-0.308,-0.626,0.048
'0:00.697',-0.015,-1.131,-1.117,0.573,0.551,-1.124,0.099,0.160,0.473,0.124,-0.305,0.057,-0.310,-0.632,0.050
'0:00.698',-0.013,-1.133,-1.121,0.573,0.554,-1.127,0.100,0.158,0.469,0.121,-0.309,0.054,-0.312,-0.640,0.048
'0:00.699',-0.015,-1.132,-1.117,0.573,0.551,-1.125,0.102,0.159,0.468,0.119,-0.310,0.053,-0.315,-0.643,0.043
'0:00.700',-0.020,-1.138,-1.118,0.579,0.549,-1.128,0.107,0.159,0.466,0.119,-0.312,0.051,-0.320,-0.647,0.048
'0:00.701',-0.028,-1.149,-1.122,0.589,0.547,-1.136,0.111,0.158,0.464,0.116,-0.317,0.045,-0.327,-0.653,0.052
'0:00.702',-0.034,-1.153,-1.119,0.593,0.543,-1.135,0.110,0.153,0.458,0.110,-0.322,0.040,-0.332,-0.653,0.053
'0:00.703',-0.033,-1.153,-1.120,0.593,0.544,-1.137,0.110,0.150,0.452,0.104,-0.328,0.034,-0.335,-0.648,0.052
'0:00.704',-0.034,-1.155,-1.121,0.594,0.544,-1.138,0.110,0.150,0.454,0.101,-0.333,0.030,-0.336,-0.644,0.051
'0:00.705',-0.037,-1.157,-1.120,0.597,0.542,-1.139,0.112,0.150,0.454,0.101,-0.335,0.030,-0.339,-0.646,0.050
'0:00.706',-0.038,-1.159,-1.122,0.599,0.542,-1.141,0.114,0.148,0.451,0.099,-0.335,0.029,-0.342,-0.652,0.051
'0:00.707',-0.043,-1.163,-1.119,0.603,0.538,-1.141,0.117,0.147,0.450,0.099,-0.337,0.028,-0.344,-0.658,0.050
'0:00.708',-0.048,-1.167,-1.118,0.607,0.535,-1.142,0.119,0.146,0.450,0.097,-0.338,0.026,-0.346,-0.659,0.050
'0:00.709',-0.050,-1.170,-1.120,0.610,0.535,-1.145,0.120,0.144,0.447,0.093,-0.342,0.025,-0.348,-0.663,0.048
'0:00.710',-0.052,-1.177,-1.125,0.615,0.537,-1.151,0.120,0.141,0.443,0.091,-0.344,0.020,-0.352,-0.668,0.044
'0:00.711',-0.057,-1.183,-1.127,0.620,0.535,-1.155,0.120,0.140,0.440,0.086,-0.345,0.016,-0.355,-0.667,0.043
'0:00.712',-0.059,-1.185,-1.127,0.622,0.534,-1.156,0.120,0.140,0.438,0.083,-0.348,0.013,-0.358,-0.669,0.043
'0:00.713',-0.050,-1.184,-1.135,0.617,0.542,-1.159,0.120,0.141,0.436,0.084,-0.348,0.011,-0.358,-0.672,0.050
'0:00.714',-0.049,-1.190,-1.141,0.619,0.546,-1.165,0.123,0.142,0.436,0.083,-0.350,0.011,-0.359,-0.675,0.051
'0:00.715',-0.050,-1.196,-1.145,0.623,0.548,-1.171,0.126,0.141,0.434,0.080,-0.351,0.009,-0.362,-0.679,0.052
'0:00.716',-0.053,-1.197,-1.144,0.625,0.545,-1.171,0.126,0.138,0.432,0.078,-0.352,0.007,-0.363,-0.682,0.058
'0:00.717',-0.059,-1.200,-1.141,0.629,0.541,-1.170,0.124,0.136,0.430,0.075,-0.355,0.004,-0.366,-0.685,0.059
'0:00.718',-0.060,-1.201,-1.140,0.631,0.540,-1.171,0.124,0.134,0.426,0.070,-0.360,0.001,-0.368,-0.688,0.060
'0:00.719',-0.063,-1.198,-1.135,0.630,0.536,-1.167,0.124,0.131,0.422,0.068,-0.363,-0.001,-0.370,-0.687,0.060
'0:00.720',-0.061,-1.199,-1.138,0.630,0.539,-1.169,0.125,0.131,0.421,0.069,-0.363,-0.001,-0.371,-0.688,0.062
'0:00.721',-0.060,-1.203,-1.143,0.631,0.541,-1.173,0.125,0.131,0.420,0.067,-0.366,-0.003,-0.372,-0.695,0.064
'0:00.722',-0.060,-1.204,-1.143,0.631,0.542,-1.173,0.123,0.130,0.419,0.065,-0.366,-0.004,-0.372,-0.695,0.065
'0:00.723',-0.059,-1.204,-1.146,0.631,0.544,-1.175,0.120,0.128,0.416,0.060,-0.369,-0.009,-0.375,-0.689,0.067
'0:00.724',-0.057,-1.202,-1.146,0.629,0.545,-1.174,0.121,0.127,0.415,0.057,-0.369,-0.009,-0.376,-0.688,0.068
'0:00.725',-0.058,-1.204,-1.145,0.631,0.544,-1.175,0.121,0.127,0.413,0.056,-0.371,-0.010,-0.376,-0.688,0.069
'0:00.726',-0.058,-1.205,-1.147,0.631,0.545,-1.176,0.121,0.126,0.413,0.054,-0.372,-0.009,-0.375,-0.688,0.072
'0:00.727',-0.054,-1.206,-1.151,0.630,0.549,-1.179,0.123,0.127,0.415,0.054,-0.369,-0.009,-0.377,-0.691,0.071
'0:00.728',-0.056,-1.208,-1.151,0.631,0.548,-1.179,0.123,0.129,0.415,0.058,-0.368,-0.011,-0.379,-0.690,0.070
'0:00.729',-0.056,-1.209,-1.153,0.632,0.549,-1.181,0.123,0.128,0.415,0.059,-0.368,-0.008,-0.377,-0.690,0.072
'0:00.730',-0.059,-1.210,-1.151,0.634,0.546,-1.181,0.122,0.125,0.412,0.054,-0.371,-0.011,-0.378,-0.687,0.070
'0:00.731',-0.061,-1.210,-1.148,0.635,0.544,-1.179,0.124,0.123,0.412,0.054,-0.372,-0.013,-0.379,-0.685,0.067
'0:00.732',-0.060,-1.214,-1.153,0.636,0.546,-1.183,0.124,0.125,0.413,0.054,-0.372,-0.013,-0.379,-0.690,0.067
'0:00.733',-0.062,-1.214,-1.152,0.638,0.545,-1.183,0.122,0.126,0.413,0.056,-0.372,-0.012,-0.377,-0.696,0.069
'0:00.734',-0.064,-1.214,-1.151,0.639,0.544,-1.183,0.123,0.127,0.412,0.058,-0.372,-0.013,-0.380,-0.699,0.068
'0:00.735',-0.065,-1.212,-1.147,0.638,0.541,-1.179,0.123,0.127,0.411,0.056,-0.373,-0.014,-0.384,-0.699,0.059
'0:00.736',-0.064,-1.210,-1.146,0.636,0.541,-1.178,0.124,0.127,0.413,0.056,-0.372,-0.013,-0.383,-0.703,0.054
'0:00.737',-0.062,-1.212,-1.151,0.637,0.544,-1.181,0.124,0.128,0.413,0.056,-0.375,-0.014,-0.382,-0.702,0.059
'0:00.738',-0.064,-1.214,-1.150,0.638,0.543,-1.182,0.124,0.128,0.414,0.057,-0.377,-0.015,-0.381,-0.700,0.065
'0:00.739',-0.061,-1.210,-1.149,0.635,0.544,-1.180,0.124,0.129,0.417,0.059,-0.374,-0.012,-0.380,-0.696,0.068
'0:00.740',-0.059,-1.208,-1.150,0.633,0.546,-1.179,0.123,0.129,0.416,0.059,-0.373,-0.012,-0.381,-0.697,0.067
'0:00.741',-0.060,-1.210,-1.149,0.635,0.544,-1.179,0.127,0.130,0.417,0.061,-0.372,-0.009,-0.381,-0.700,0.066
'0:00.742',-0.063,-1.209,-1.145,0.636,0.541,-1.177,0.126,0.130,0.418,0.060,-0.372,-0.009,-0.379,-0.700,0.064
'0:00.743',-0.065,-1.210,-1.145,0.637,0.540,-1.178,0.123,0.127,0.416,0.058,-0.374,-0.013,-0.380,-0.699,0.062
'0:00.744',-0.066,-1.210,-1.145,0.638,0.539,-1.177,0.120,0.127,0.415,0.059,-0.376,-0.011,-0.379,-0.696,0.065
'0:00.745',-0.065,-1.210,-1.145,0.636,0.540,-1.177,0.119,0.126,0.412,0.059,-0.378,-0.013,-0.379,-0.698,0.062
'0:00.746',-0.064,-1.212,-1.147,0.637,0.542,-1.179,0.121,0.124,0.413,0.058,-0.379,-0.013,-0.379,-0.697,0.060
'0:00.747',-0.064,-1.214,-1.150,0.638,0.543,-1.182,0.122,0.123,0.414,0.057,-0.380,-0.013,-0.379,-0.693,0.065
'0:00.748',-0.066,-1.218,-1.151,0.642,0.543,-1.185,0.123,0.127,0.415,0.057,-0.380,-0.013,-0.380,-0.692,0.070
'0:00.749',-0.068,-1.220,-1.153,0.644,0.542,-1.187,0.122,0.127,0.413,0.055,-0.381,-0.013,-0.380,-0.689,0.071
'0:00.750',-0.070,-1.218,-1.147,0.643,0.539,-1.183,0.120,0.124,0.412,0.052,-0.384,-0.015,-0.380,-0.687,0.068
'0:00.751',-0.073,-1.219,-1.146,0.646,0.536,-1.183,0.121,0.127,0.415,0.053,-0.384,-0.015,-0.381,-0.689,0.066
'0:00.752',-0.071,-1.221,-1.149,0.646,0.539,-1.185,0.127,0.132,0.416,0.053,-0.386,-0.018,-0.383,-0.693,0.062
'0:00.753',-0.070,-1.222,-1.152,0.646,0.541,-1.188,0.132,0.137,0.420,0.056,-0.387,-0.019,-0.385,-0.704,0.060
'0:00.754',-0.071,-1.224,-1.153,0.647,0.541,-1.189,0.138,0.141,0.424,0.057,-0.388,-0.021,-0.388,-0.708,0.058
'0:00.755',-0.071,-1.222,-1.151,0.646,0.540,-1.187,0.137,0.141,0.425,0.056,-0.390,-0.021,-0.389,-0.707,0.053
'0:00.756',-0.069,-1.226,-1.158,0.647,0.545,-1.192,0.136,0.146,0.429,0.059,-0.392,-0.021,-0.388,-0.713,0.051
'0:00.757',-0.068,-1.244,-1.175,0.655,0.554,-1.210,0.141,0.153,0.433,0.060,-0.394,-0.023,-0.388,-0.724,0.052
'0:00.758',-0.065,-1.253,-1.188,0.659,0.561,-1.220,0.142,0.160,0.440,0.059,-0.398,-0.028,-0.390,-0.731,0.056
'0:00.759',-0.060,-1.260,-1.200,0.659,0.570,-1.230,0.147,0.174,0.453,0.065,-0.406,-0.033,-0.393,-0.740,0.052
'0:00.760',-0.054,-1.269,-1.214,0.661,0.581,-1.242,0.151,0.193,0.473,0.079,-0.408,-0.029,-0.386,-0.750,0.047
'0:00.761',-0.047,-1.272,-1.224,0.659,0.589,-1.248,0.154,0.210,0.494,0.098,-0.406,-0.021,-0.377,-0.755,0.040
'0:00.762',-0.048,-1.274,-1.226,0.660,0.590,-1.250,0.161,0.223,0.514,0.110,-0.410,-0.021,-0.377,-0.756,0.030
'0:00.763',-0.047,-1.273,-1.226,0.659,0.590,-1.250,0.164,0.230,0.529,0.117,-0.416,-0.020,-0.376,-0.755,0.021
'0:00.764',-0.049,-1.269,-1.220,0.658,0.586,-1.244,0.171,0.238,0.544,0.125,-0.421,-0.022,-0.378,-0.749,0.009
'0:00.765',-0.055,-1.257,-1.202,0.655,0.574,-1.230,0.178,0.242,0.559,0.138,-0.422,-0.019,-0.378,-0.736,-0.004
'0:00.766',-0.060,-1.244,-1.183,0.652,0.561,-1.214,0.188,0.250,0.578,0.149,-0.428,-0.018,-0.382,-0.725,-0.018
'0:00.767',-0.064,-1.231,-1.167,0.647,0.552,-1.200,0.199,0.270,0.610,0.170,-0.428,-0.012,-0.378,-0.715,-0.042
'0:00.768',-0.055,-1.208,-1.153,0.631,0.549,-1.181,0.199,0.295,0.654,0.212,-0.409,0.018,-0.349,-0.698,-0.058
'0:00.769',-0.043,-1.185,-1.143,0.614,0.550,-1.165,0.193,0.313,0.694,0.258,-0.384,0.056,-0.312,-0.682,-0.069
'0:00.770',-0.028,-1.160,-1.133,0.594,0.552,-1.147,0.183,0.329,0.730,0.303,-0.353,0.096,-0.275,-0.664,-0.081
'0:00.771',-0.012,-1.145,-1.133,0.579,0.561,-1.139,0.182,0.365,0.782,0.352,-0.321,0.139,-0.235,-0.653,-0.098
'0:00.772',0.003,-1.128,-1.131,0.562,0.568,-1.129,0.184,0.411,0.846,0.412,-0.285,0.188,-0.188,-0.645,-0.120
'0:00.773',0.023,-1.103,-1.125,0.539,0.575,-1.114,0.175,0.443,0.902,0.480,-0.242,0.244,-0.135,-0.632,-0.132
'0:00.774',0.045,-1.081,-1.127,0.518,0.586,-1.104,0.157,0.459,0.943,0.538,-0.199,0.297,-0.086,-0.624,-0.133
'0:00.775',0.068,-1.054,-1.123,0.493,0.596,-1.089,0.132,0.472,0.981,0.596,-0.159,0.350,-0.035,-0.607,-0.134
'0:00.776',0.092,-1.028,-1.120,0.468,0.607,-1.075,0.109,0.491,1.025,0.661,-0.115,0.410,0.025,-0.589,-0.133
'0:00.777',0.125,-1.000,-1.125,0.437,0.625,-1.062,0.085,0.511,1.079,0.750,-0.048,0.496,0.106,-0.574,-0.132
'0:00.778',0.172,-0.966,-1.137,0.397,0.654,-1.052,0.045,0.532,1.146,0.867,0.045,0.613,0.217,-0.558,-0.128
'0:00.779',0.212,-0.918,-1.130,0.353,0.671,-1.024,0.009,0.545,1.217,1.000,0.147,0.745,0.337,-0.534,-0.130
'0:00.780',0.234,-0.849,-1.083,0.307,0.659,-0.966,-0.024,0.536,1.270,1.129,0.249,0.877,0.449,-0.485,-0.136
'0:00.781',0.253,-0.771,-1.024,0.259,0.638,-0.898,-0.065,0.505,1.303,1.250,0.354,1.010,0.561,-0.425,-0.130
'0:00.782',0.276,-0.693,-0.969,0.208,0.623,-0.831,-0.116,0.465,1.333,1.387,0.480,1.167,0.693,-0.365,-0.118
'0:00.783',0.301,-0.607,-0.908,0.152,0.605,-0.757,-0.186,0.406,1.349,1.525,0.622,1.339,0.836,-0.302,-0.092
'0:00.784',0.340,-0.530,-0.870,0.095,0.605,-0.700,-0.265,0.343,1.364,1.675,0.770,1.520,0.991,-0.247,-0.052
'0:00.785',0.383,-0.467,-0.851,0.042,0.618,-0.658,-0.343,0.287,1.380,1.828,0.918,1.700,1.145,-0.207,-0.008
'0:00.786',0.412,-0.407,-0.820,-0.003,0.617,-0.614,-0.408,0.233,1.397,1.975,1.052,1.867,1.285,-0.168,0.026
'0:00.787',0.445,-0.350,-0.796,-0.048,0.621,-0.574,-0.463,0.190,1.425,2.118,1.177,2.024,1.417,-0.131,0.051
'0:00.788',0.471,-0.294,-0.766,-0.089,0.620,-0.530,-0.503,0.159,1.456,2.256,1.292,2.172,1.540,-0.089,0.072
'0:00.789',0.494,-0.235,-0.730,-0.130,0.613,-0.483,-0.551,0.127,1.476,2.369,1.404,2.304,1.652,-0.042,0.101
'0:00.790',0.519,-0.184,-0.704,-0.169,0.613,-0.444,-0.601,0.098,1.488,2.456,1.504,2.417,1.747,-0.003,0.130
'0:00.791',0.538,-0.151,-0.690,-0.194,0.615,-0.420,-0.645,0.065,1.478,2.510,1.577,2.494,1.813,0.022,0.165
'0:00.792',0.552,-0.135,-0.688,-0.209,0.621,-0.411,-0.697,0.010,1.425,2.507,1.626,2.527,1.843,0.032,0.223
'0:00.793',0.554,-0.114,-0.669,-0.221,0.613,-0.392,-0.740,-0.052,1.351,2.456,1.660,2.528,1.843,0.043,0.278
'0:00.794',0.555,-0.076,-0.632,-0.240,0.594,-0.354,-0.781,-0.120,1.254,2.373,1.683,2.507,1.825,0.073,0.328
'0:00.795',0.535,-0.051,-0.586,-0.243,0.561,-0.319,-0.799,-0.189,1.149,2.260,1.669,2.445,1.768,0.101,0.369
'0:00.796',0.510,-0.048,-0.558,-0.232,0.534,-0.303,-0.811,-0.259,1.022,2.103,1.636,2.348,1.681,0.112,0.415
'0:00.797',0.485,-0.039,-0.524,-0.224,0.505,-0.281,-0.831,-0.339,0.881,1.933,1.600,2.247,1.591,0.129,0.466
'0:00.798',0.442,-0.033,-0.474,-0.205,0.459,-0.254,-0.842,-0.422,0.741,1.744,1.536,2.115,1.474,0.149,0.511
'0:00.799',0.401,-0.034,-0.434,-0.184,0.418,-0.234,-0.851,-0.512,0.582,1.533,1.460,1.966,1.341,0.162,0.556
'0:00.800',0.358,-0.042,-0.400,-0.159,0.379,-0.221,-0.866,-0.618,0.404,1.317,1.391,1.823,1.213,0.164,0.610
'0:00.801',0.310,-0.051,-0.361,-0.130,0.337,-0.206,-0.882,-0.726,0.219,1.095,1.317,1.675,1.080,0.165,0.664
'0:00.802',0.255,-0.057,-0.312,-0.099,0.283,-0.184,-0.895,-0.844,0.021,0.865,1.235,1.522,0.940,0.174,0.719
'0:00.803',0.197,-0.078,-0.275,-0.059,0.235,-0.176,-0.902,-0.947,-0.165,0.644,1.155,1.375,0.805,0.175,0.768
'0:00.804',0.147,-0.090,-0.238,-0.029,0.193,-0.165,-0.904,-1.033,-0.336,0.432,1.073,1.231,0.674,0.174,0.811
'0:00.805',0.106,-0.083,-0.189,-0.012,0.147,-0.136,-0.927,-1.137,-0.526,0.210,0.997,1.085,0.544,0.194,0.861
'0:00.806',0.064,-0.089,-0.153,0.012,0.109,-0.121,-0.941,-1.226,-0.704,0.000,0.916,0.942,0.414,0.196,0.899
'0:00.807',0.025,-0.108,-0.133,0.042,0.079,-0.120,-0.938,-1.290,-0.850,-0.181,0.837,0.810,0.294,0.187,0.931
'0:00.808',-0.008,-0.128,-0.119,0.068,0.056,-0.123,-0.933,-1.345,-0.970,-0.336,0.759,0.685,0.183,0.186,0.960
'0:00.809',-0.027,-0.162,-0.135,0.094,0.054,-0.148,-0.928,-1.375,-1.042,-0.445,0.693,0.586,0.099,0.162,0.980
'0:00.810',-0.017,-0.204,-0.188,0.111,0.086,-0.196,-0.918,-1.352,-1.036,-0.480,0.650,0.529,0.059,0.129,0.980
'0:00.811',-0.015,-0.255,-0.240,0.134,0.113,-0.247,-0.888,-1.297,-0.991,-0.486,0.603,0.479,0.019,0.092,0.962
'0:00.812',-0.022,-0.308,-0.286,0.165,0.132,-0.297,-0.847,-1.232,-0.938,-0.486,0.550,0.429,-0.025,0.053,0.940
'0:00.813',-0.028,-0.365,-0.337,0.197,0.155,-0.351,-0.795,-1.157,-0.873,-0.476,0.496,0.385,-0.065,0.009,0.906
'0:00.814',-0.038,-0.431,-0.393,0.234,0.177,-0.412,-0.737,-1.080,-0.805,-0.469,0.433,0.333,-0.107,-0.043,0.872
'0:00.815',-0.038,-0.502,-0.464,0.270,0.213,-0.483,-0.674,-0.993,-0.734,-0.463,0.372,0.281,-0.145,-0.098,0.833
'0:00.816',-0.045,-0.569,-0.524,0.306,0.240,-0.546,-0.607,-0.906,-0.659,-0.445,0.312,0.242,-0.180,-0.149,0.781
'0:00.817',-0.054,-0.612,-0.558,0.333,0.252,-0.585,-0.551,-0.835,-0.595,-0.431,0.255,0.202,-0.214,-0.178,0.736
'0:00.818',-0.058,-0.631,-0.574,0.344,0.259,-0.603,-0.505,-0.767,-0.535,-0.419,0.207,0.167,-0.241,-0.184,0.703
'0:00.819',-0.060,-0.651,-0.591,0.355,0.265,-0.621,-0.461,-0.699,-0.467,-0.397,0.159,0.139,-0.267,-0.192,0.665
'0:00.820',-0.061,-0.668,-0.607,0.365,0.273,-0.638,-0.419,-0.632,-0.401,-0.370,0.114,0.115,-0.285,-0.209,0.614
'0:00.821',-0.066,-0.696,-0.629,0.381,0.282,-0.663,-0.373,-0.566,-0.333,-0.340,0.073,0.099,-0.302,-0.231,0.572
'0:00.822',-0.069,-0.735,-0.665,0.402,0.298,-0.700,-0.332,-0.507,-0.270,-0.311,0.034,0.083,-0.318,-0.260,0.538
'0:00.823',-0.071,-0.765,-0.695,0.417,0.312,-0.730,-0.293,-0.445,-0.204,-0.276,-0.004,0.074,-0.324,-0.281,0.497
'0:00.824',-0.074,-0.802,-0.729,0.438,0.328,-0.765,-0.255,-0.382,-0.139,-0.243,-0.043,0.062,-0.334,-0.306,0.457
'0:00.825',-0.074,-0.846,-0.771,0.460,0.348,-0.808,-0.216,-0.325,-0.080,-0.212,-0.072,0.056,-0.339,-0.346,0.421
'0:00.826',-0.075,-0.883,-0.807,0.479,0.366,-0.845,-0.178,-0.277,-0.029,-0.189,-0.107,0.042,-0.349,-0.377,0.390
'0:00.827',-0.074,-0.908,-0.834,0.491,0.381,-0.871,-0.148,-0.238,0.011,-0.169,-0.136,0.033,-0.356,-0.397,0.360
'0:00.828',-0.072,-0.931,-0.858,0.501,0.393,-0.894,-0.120,-0.196,0.058,-0.141,-0.152,0.035,-0.354,-0.418,0.330
'0:00.829',-0.075,-0.952,-0.877,0.513,0.402,-0.914,-0.095,-0.162,0.099,-0.115,-0.171,0.034,-0.353,-0.435,0.301
'0:00.830',-0.073,-0.964,-0.890,0.518,0.408,-0.927,-0.074,-0.132,0.135,-0.093,-0.182,0.040,-0.347,-0.448,0.278
'0:00.831',-0.075,-0.977,-0.902,0.526,0.413,-0.940,-0.054,-0.102,0.170,-0.070,-0.191,0.046,-0.342,-0.457,0.255
'0:00.832',-0.072,-0.996,-0.924,0.534,0.426,-0.960,-0.030,-0.070,0.205,-0.046,-0.204,0.048,-0.340,-0.474,0.230
'0:00.833',-0.064,-1.014,-0.950,0.539,0.443,-0.982,-0.007,-0.035,0.242,-0.025,-0.221,0.044,-0.341,-0.499,0.205
'0:00.834',-0.062,-1.029,-0.967,0.545,0.453,-0.998,0.013,-0.007,0.275,-0.004,-0.232,0.048,-0.335,-0.518,0.179
'0:00.835',-0.059,-1.042,-0.983,0.550,0.462,-1.012,0.029,0.019,0.302,0.015,-0.237,0.053,-0.329,-0.536,0.155
'0:00.836',-0.054,-1.052,-0.998,0.553,0.472,-1.025,0.043,0.042,0.328,0.033,-0.241,0.058,-0.323,-0.549,0.136
'0:00.837',-0.050,-1.060,-1.010,0.554,0.480,-1.035,0.055,0.059,0.349,0.045,-0.245,0.061,-0.320,-0.560,0.118
'0:00.838',-0.049,-1.067,-1.017,0.557,0.484,-1.042,0.064,0.071,0.363,0.054,-0.252,0.061,-0.320,-0.567,0.108
'0:00.839',-0.049,-1.075,-1.026,0.561,0.488,-1.050,0.071,0.081,0.379,0.064,-0.256,0.062,-0.320,-0.573,0.105
'0:00.840',-0.047,-1.081,-1.034,0.564,0.493,-1.058,0.080,0.092,0.392,0.074,-0.260,0.065,-0.319,-0.579,0.102
'0:00.841',-0.047,-1.087,-1.040,0.567,0.496,-1.063,0.086,0.102,0.401,0.079,-0.266,0.064,-0.320,-0.586,0.096
'0:00.842',-0.049,-1.095,-1.046,0.572,0.499,-1.071,0.092,0.111,0.410,0.083,-0.274,0.060,-0.323,-0.594,0.087
'0:00.843',-0.051,-1.101,-1.051,0.576,0.500,-1.077,0.097,0.117,0.417,0.084,-0.279,0.059,-0.326,-0.596,0.083
'0:00.844',-0.051,-1.105,-1.054,0.578,0.502,-1.080,0.100,0.118,0.419,0.082,-0.286,0.054,-0.329,-0.598,0.080
'0:00.845',-0.050,-1.110,-1.060,0.580,0.505,-1.085,0.103,0.123,0.423,0.084,-0.291,0.051,-0.331,-0.604,0.078
'0:00.846',-0.049,-1.115,-1.067,0.582,0.509,-1.091,0.107,0.129,0.429,0.087,-0.294,0.051,-0.333,-0.608,0.076
'0:00.847',-0.051,-1.121,-1.071,0.586,0.510,-1.097,0.111,0.133,0.431,0.086,-0.298,0.047,-0.336,-0.610,0.074
'0:00.848',-0.052,-1.123,-1.071,0.588,0.509,-1.097,0.115,0.138,0.435,0.086,-0.301,0.045,-0.339,-0.612,0.072
'0:00.849',-0.054,-1.127,-1.073,0.591,0.510,-1.101,0.118,0.141,0.439,0.088,-0.303,0.043,-0.339,-0.617,0.070
'0:00.850',-0.054,-1.133,-1.079,0.594,0.513,-1.107,0.119,0.144,0.443,0.088,-0.306,0.043,-0.338,-0.618,0.066
'0:00.851',-0.053,-1.136,-1.083,0.594,0.515,-1.109,0.122,0.151,0.448,0.089,-0.307,0.043,-0.339,-0.619,0.061
'0:00.852',-0.052,-1.141,-1.089,0.596,0.519,-1.115,0.123,0.156,0.451,0.091,-0.310,0.042,-0.338,-0.624,0.059
'0:00.853',-0.049,-1.143,-1.093,0.596,0.522,-1.118,0.127,0.161,0.454,0.093,-0.312,0.041,-0.338,-0.631,0.054
'0:00.854',-0.048,-1.144,-1.097,0.596,0.524,-1.120,0.132,0.165,0.458,0.097,-0.315,0.041,-0.340,-0.635,0.052
'0:00.855',-0.050,-1.147,-1.097,0.599,0.523,-1.122,0.130,0.167,0.459,0.098,-0.318,0.040,-0.340,-0.636,0.052
'0:00.856',-0.050,-1.151,-1.101,0.600,0.525,-1.125,0.133,0.168,0.462,0.097,-0.320,0.036,-0.343,-0.636,0.051
'0:00.857',-0.051,-1.154,-1.103,0.603,0.526,-1.128,0.137,0.172,0.464,0.100,-0.320,0.035,-0.343,-0.637,0.050
'0:00.858',-0.053,-1.155,-1.102,0.605,0.524,-1.129,0.137,0.175,0.467,0.101,-0.322,0.036,-0.344,-0.638,0.048
'0:00.859',-0.050,-1.155,-1.105,0.602,0.528,-1.130,0.138,0.175,0.469,0.100,-0.326,0.034,-0.345,-0.635,0.046
'0:00.860',-0.048,-1.151,-1.103,0.599,0.528,-1.127,0.138,0.178,0.471,0.101,-0.328,0.033,-0.345,-0.637,0.046
'0:00.861',-0.047,-1.151,-1.103,0.599,0.528,-1.127,0.139,0.180,0.474,0.102,-0.330,0.032,-0.345,-0.640,0.043
'0:00.862',-0.047,-1.153,-1.105,0.600,0.529,-1.129,0.141,0.182,0.473,0.102,-0.332,0.030,-0.347,-0.639,0.041
'0:00.863',-0.051,-1.158,-1.107,0.605,0.528,-1.132,0.141,0.182,0.474,0.101,-0.333,0.030,-0.347,-0.641,0.040
'0:00.864',-0.051,-1.157,-1.107,0.604,0.528,-1.133,0.142,0.184,0.477,0.101,-0.335,0.030,-0.347,-0.641,0.039
'0:00.865',-0.050,-1.159,-1.110,0.604,0.530,-1.135,0.145,0.188,0.480,0.103,-0.336,0.029,-0.347,-0.645,0.036
'0:00.866',-0.051,-1.163,-1.113,0.607,0.531,-1.138,0.146,0.190,0.481,0.104,-0.336,0.030,-0.348,-0.649,0.034
'0:00.867',-0.051,-1.163,-1.111,0.607,0.531,-1.137,0.145,0.191,0.482,0.105,-0.335,0.029,-0.349,-0.647,0.032
'0:00.868',-0.052,-1.163,-1.111,0.608,0.530,-1.137,0.148,0.192,0.485,0.106,-0.335,0.029,-0.348,-0.647,0.030
'0:00.869',-0.049,-1.163,-1.114,0.606,0.532,-1.139,0.150,0.195,0.486,0.106,-0.336,0.032,-0.347,-0.647,0.030
'0:00.870',-0.047,-1.165,-1.117,0.606,0.535,-1.141,0.149,0.195,0.488,0.107,-0.337,0.029,-0.348,-0.647,0.027
'0:00.871',-0.045,-1.163,-1.117,0.604,0.536,-1.140,0.148,0.196,0.489,0.108,-0.338,0.029,-0.347,-0.646,0.025
'0:00.872',-0.046,-1.162,-1.116,0.604,0.535,-1.139,0.150,0.195,0.488,0.106,-0.341,0.026,-0.349,-0.648,0.024
'0:00.873',-0.045,-1.163,-1.118,0.604,0.536,-1.141,0.153,0.199,0.493,0.111,-0.338,0.029,-0.348,-0.653,0.023
'0:00.874',-0.043,-1.163,-1.119,0.603,0.538,-1.141,0.153,0.203,0.494,0.114,-0.336,0.032,-0.347,-0.656,0.023
'0:00.875',-0.045,-1.163,-1.117,0.604,0.536,-1.141,0.151,0.201,0.495,0.113,-0.337,0.030,-0.346,-0.651,0.024
'0:00.876',-0.045,-1.164,-1.119,0.605,0.537,-1.141,0.151,0.202,0.496,0.112,-0.338,0.029,-0.346,-0.649,0.022
'0:00.877',-0.047,-1.167,-1.119,0.607,0.536,-1.143,0.151,0.202,0.494,0.112,-0.341,0.028,-0.346,-0.650,0.022
'0:00.878',-0.048,-1.165,-1.117,0.606,0.535,-1.141,0.152,0.203,0.497,0.114,-0.341,0.029,-0.347,-0.650,0.021
'0:00.879',-0.045,-1.161,-1.115,0.603,0.535,-1.137,0.153,0.205,0.501,0.115,-0.342,0.030,-0.346,-0.655,0.013
'0:00.880',-0.042,-1.161,-1.119,0.602,0.538,-1.139,0.155,0.208,0.503,0.118,-0.339,0.030,-0.346,-0.661,0.004
'0:00.881',-0.041,-1.163,-1.123,0.602,0.541,-1.143,0.158,0.210,0.505,0.121,-0.336,0.033,-0.346,-0.661,0.006
'0:00.882',-0.038,-1.163,-1.125,0.600,0.543,-1.144,0.158,0.212,0.506,0.122,-0.336,0.034,-0.344,-0.653,0.017
'0:00.883',-0.041,-1.161,-1.121,0.601,0.540,-1.141,0.157,0.210,0.507,0.119,-0.337,0.034,-0.344,-0.648,0.021
'0:00.884',-0.045,-1.159,-1.113,0.602,0.534,-1.137,0.158,0.209,0.507,0.117,-0.339,0.034,-0.343,-0.648,0.015
'0:00.885',-0.048,-1.161,-1.113,0.604,0.533,-1.137,0.157,0.211,0.507,0.118,-0.338,0.034,-0.344,-0.650,0.011
'0:00.886',-0.050,-1.167,-1.117,0.608,0.534,-1.142,0.159,0.213,0.510,0.122,-0.336,0.035,-0.344,-0.655,0.015
'0:00.887',-0.048,-1.165,-1.117,0.607,0.535,-1.141,0.161,0.215,0.513,0.123,-0.336,0.035,-0.345,-0.651,0.019
'0:00.888',-0.045,-1.163,-1.118,0.604,0.536,-1.141,0.159,0.216,0.513,0.121,-0.336,0.035,-0.345,-0.644,0.021
'0:00.889',-0.043,-1.165,-1.123,0.604,0.540,-1.144,0.159,0.217,0.515,0.124,-0.336,0.036,-0.343,-0.647,0.015
'0:00.890',-0.044,-1.164,-1.119,0.605,0.537,-1.142,0.160,0.218,0.517,0.124,-0.334,0.036,-0.342,-0.645,0.009
'0:00.891',-0.046,-1.164,-1.117,0.605,0.535,-1.141,0.159,0.218,0.516,0.123,-0.337,0.034,-0.343,-0.642,0.011
'0:00.892',-0.047,-1.163,-1.115,0.605,0.534,-1.139,0.159,0.215,0.515,0.122,-0.338,0.030,-0.344,-0.646,0.009
'0:00.893',-0.048,-1.158,-1.110,0.603,0.531,-1.134,0.161,0.220,0.518,0.123,-0.338,0.032,-0.345,-0.646,0.009
'0:00.894',-0.044,-1.154,-1.110,0.599,0.533,-1.132,0.163,0.222,0.519,0.127,-0.336,0.035,-0.342,-0.644,0.011
'0:00.895',-0.043,-1.153,-1.110,0.598,0.533,-1.131,0.161,0.221,0.519,0.128,-0.337,0.033,-0.343,-0.642,0.006
'0:00.896',-0.044,-1.155,-1.111,0.599,0.533,-1.133,0.162,0.224,0.520,0.129,-0.339,0.034,-0.344,-0.642,0.004
'0:00.897',-0.043,-1.159,-1.115,0.601,0.536,-1.137,0.165,0.227,0.524,0.131,-0.334,0.039,-0.341,-0.645,0.009
'0:00.898',-0.044,-1.155,-1.111,0.600,0.534,-1.133,0.164,0.228,0.526,0.132,-0.334,0.040,-0.335,-0.643,0.009
'0:00.899',-0.043,-1.155,-1.111,0.599,0.534,-1.133,0.165,0.228,0.525,0.131,-0.335,0.038,-0.338,-0.644,0.005
'0:00.900',-0.043,-1.160,-1.117,0.602,0.537,-1.139,0.167,0.229,0.526,0.132,-0.332,0.038,-0.343,-0.650,0.003
'0:00.901',-0.041,-1.154,-1.113,0.598,0.536,-1.134,0.166,0.231,0.526,0.134,-0.332,0.039,-0.340,-0.648,0.002
'0:00.902',-0.038,-1.149,-1.110,0.593,0.536,-1.129,0.162,0.228,0.525,0.132,-0.335,0.037,-0.338,-0.644,0.003
'0:00.903',-0.041,-1.149,-1.109,0.595,0.534,-1.129,0.161,0.227,0.525,0.130,-0.337,0.037,-0.337,-0.642,0.000
'0:00.904',-0.042,-1.153,-1.111,0.597,0.535,-1.131,0.161,0.227,0.525,0.130,-0.337,0.036,-0.337,-0.642,0.001
'0:00.905',-0.042,-1.152,-1.110,0.597,0.534,-1.131,0.162,0.230,0.528,0.131,-0.335,0.037,-0.338,-0.641,0.000
'0:00.906',-0.043,-1.155,-1.113,0.599,0.535,-1.134,0.166,0.233,0.531,0.134,-0.331,0.039,-0.338,-0.645,-0.005
'0:00.907',-0.043,-1.157,-1.113,0.600,0.535,-1.135,0.165,0.233,0.532,0.133,-0.332,0.041,-0.337,-0.647,-0.006
'0:00.908',-0.048,-1.155,-1.108,0.601,0.530,-1.131,0.165,0.232,0.532,0.134,-0.331,0.042,-0.335,-0.648,-0.011
'0:00.909',-0.050,-1.155,-1.105,0.603,0.528,-1.131,0.165,0.234,0.534,0.136,-0.329,0.042,-0.335,-0.641,-0.009
'0:00.910',-0.050,-1.155,-1.105,0.603,0.528,-1.131,0.165,0.234,0.536,0.136,-0.329,0.044,-0.333,-0.636,-0.006
'0:00.911',-0.051,-1.159,-1.109,0.604,0.529,-1.133,0.165,0.234,0.536,0.135,-0.328,0.044,-0.334,-0.640,-0.005
'0:00.912',-0.050,-1.159,-1.109,0.604,0.530,-1.135,0.168,0.237,0.537,0.135,-0.328,0.044,-0.334,-0.637,-0.004
'0:00.913',-0.049,-1.158,-1.109,0.603,0.530,-1.134,0.169,0.238,0.541,0.138,-0.326,0.045,-0.335,-0.641,-0.006
'0:00.914',-0.051,-1.157,-1.107,0.604,0.528,-1.132,0.165,0.240,0.540,0.139,-0.327,0.046,-0.335,-0.642,-0.004
'0:00.915',-0.051,-1.157,-1.107,0.605,0.527,-1.132,0.166,0.241,0.541,0.139,-0.328,0.045,-0.335,-0.641,-0.003
'0:00.916',-0.049,-1.157,-1.109,0.603,0.530,-1.133,0.170,0.242,0.543,0.141,-0.327,0.045,-0.335,-0.645,-0.006
'0:00.917',-0.046,-1.155,-1.109,0.601,0.531,-1.133,0.169,0.243,0.543,0.140,-0.327,0.045,-0.333,-0.643,-0.011
'0:00.918',-0.044,-1.154,-1.109,0.599,0.533,-1.132,0.165,0.242,0.544,0.141,-0.327,0.045,-0.333,-0.640,-0.013
'0:00.919',-0.043,-1.150,-1.107,0.596,0.532,-1.129,0.166,0.245,0.545,0.143,-0.325,0.047,-0.333,-0.636,-0.013
'0:00.920',-0.041,-1.145,-1.103,0.593,0.531,-1.124,0.168,0.248,0.546,0.144,-0.325,0.046,-0.333,-0.634,-0.015
'0:00.921',-0.040,-1.145,-1.105,0.592,0.533,-1.125,0.168,0.247,0.547,0.144,-0.325,0.046,-0.332,-0.637,-0.013
'0:00.922',-0.037,-1.145,-1.107,0.591,0.536,-1.126,0.167,0.248,0.549,0.145,-0.323,0.047,-0.331,-0.640,-0.012
'0:00.923',-0.038,-1.145,-1.106,0.592,0.534,-1.125,0.167,0.248,0.549,0.143,-0.325,0.046,-0.330,-0.642,-0.015
'0:00.924',-0.044,-1.145,-1.100,0.595,0.528,-1.123,0.166,0.249,0.549,0.143,-0.325,0.046,-0.330,-0.639,-0.016
'0:00.925',-0.040,-1.142,-1.103,0.591,0.531,-1.122,0.165,0.249,0.549,0.143,-0.325,0.046,-0.329,-0.637,-0.015
'0:00.926',-0.038,-1.143,-1.104,0.590,0.533,-1.123,0.167,0.248,0.550,0.143,-0.326,0.046,-0.327,-0.635,-0.013
'0:00.927',-0.041,-1.142,-1.101,0.591,0.530,-1.121,0.167,0.250,0.553,0.144,-0.325,0.047,-0.328,-0.637,-0.017
'0:00.928',-0.040,-1.142,-1.102,0.591,0.531,-1.122,0.168,0.251,0.554,0.145,-0.325,0.048,-0.329,-0.638,-0.019
'0:00.929',-0.044,-1.141,-1.097,0.593,0.526,-1.119,0.167,0.253,0.554,0.147,-0.323,0.049,-0.328,-0.630,-0.018
'0:00.930',-0.045,-1.141,-1.095,0.593,0.525,-1.117,0.168,0.255,0.556,0.147,-0.322,0.050,-0.327,-0.628,-0.021
'0:00.931',-0.043,-1.139,-1.096,0.592,0.526,-1.118,0.166,0.254,0.556,0.147,-0.323,0.049,-0.326,-0.628,-0.022
'0:00.932',-0.045,-1.139,-1.094,0.592,0.524,-1.117,0.164,0.254,0.555,0.147,-0.323,0.049,-0.326,-0.628,-0.025
'0:00.933',-0.040,-1.135,-1.095,0.587,0.527,-1.115,0.168,0.257,0.559,0.150,-0.320,0.051,-0.325,-0.628,-0.022
'0:00.934',-0.040,-1.133,-1.092,0.586,0.526,-1.112,0.170,0.260,0.562,0.152,-0.319,0.053,-0.324,-0.623,-0.013
'0:00.935',-0.041,-1.134,-1.093,0.588,0.526,-1.113,0.169,0.262,0.564,0.153,-0.321,0.052,-0.324,-0.619,-0.013
'0:00.936',-0.041,-1.139,-1.098,0.589,0.529,-1.118,0.172,0.264,0.567,0.158,-0.318,0.057,-0.321,-0.623,-0.018
'0:00.937',-0.040,-1.138,-1.099,0.589,0.529,-1.118,0.172,0.268,0.570,0.159,-0.316,0.059,-0.322,-0.628,-0.018
'0:00.938',-0.037,-1.131,-1.095,0.584,0.529,-1.113,0.171,0.268,0.571,0.159,-0.316,0.060,-0.320,-0.624,-0.018
'0:00.939',-0.040,-1.129,-1.089,0.584,0.524,-1.109,0.172,0.270,0.574,0.162,-0.313,0.064,-0.319,-0.623,-0.018
'0:00.940',-0.039,-1.125,-1.087,0.582,0.524,-1.106,0.173,0.272,0.575,0.165,-0.314,0.065,-0.319,-0.625,-0.019
'0:00.941',-0.037,-1.124,-1.087,0.581,0.525,-1.105,0.176,0.274,0.577,0.168,-0.313,0.065,-0.317,-0.623,-0.019
'0:00.942',-0.040,-1.125,-1.085,0.582,0.523,-1.105,0.176,0.276,0.579,0.169,-0.311,0.065,-0.317,-0.620,-0.019
'0:00.943',-0.040,-1.127,-1.087,0.584,0.523,-1.107,0.175,0.276,0.580,0.167,-0.312,0.065,-0.318,-0.619,-0.021
'0:00.944',-0.042,-1.125,-1.084,0.584,0.521,-1.105,0.173,0.275,0.579,0.166,-0.313,0.061,-0.316,-0.617,-0.021
'0:00.945',-0.041,-1.121,-1.080,0.581,0.520,-1.100,0.172,0.276,0.581,0.168,-0.310,0.065,-0.314,-0.613,-0.021
'0:00.946',-0.040,-1.119,-1.080,0.580,0.520,-1.099,0.174,0.280,0.584,0.170,-0.310,0.068,-0.314,-0.616,-0.022
'0:00.947',-0.042,-1.121,-1.079,0.581,0.518,-1.100,0.173,0.279,0.585,0.170,-0.311,0.067,-0.312,-0.617,-0.023
'0:00.948',-0.043,-1.121,-1.079,0.582,0.518,-1.100,0.174,0.280,0.588,0.172,-0.309,0.070,-0.310,-0.616,-0.025
'0:00.949',-0.043,-1.120,-1.077,0.581,0.517,-1.099,0.175,0.284,0.591,0.172,-0.305,0.072,-0.308,-0.613,-0.025
'0:00.950',-0.041,-1.118,-1.078,0.579,0.519,-1.098,0.174,0.285,0.592,0.173,-0.303,0.074,-0.306,-0.608,-0.027
'0:00.951',-0.038,-1.120,-1.082,0.579,0.522,-1.101,0.173,0.287,0.594,0.174,-0.303,0.073,-0.306,-0.611,-0.029
'0:00.952',-0.036,-1.118,-1.081,0.578,0.522,-1.100,0.174,0.288,0.595,0.175,-0.301,0.074,-0.305,-0.609,-0.029
'0:00.953',-0.037,-1.113,-1.075,0.575,0.519,-1.093,0.175,0.291,0.598,0.181,-0.299,0.077,-0.304,-0.605,-0.030
'0:00.954',-0.036,-1.111,-1.075,0.573,0.519,-1.093,0.176,0.295,0.601,0.183,-0.299,0.079,-0.303,-0.608,-0.030
'0:00.955',-0.035,-1.110,-1.075,0.573,0.519,-1.093,0.176,0.298,0.603,0.185,-0.298,0.081,-0.301,-0.607,-0.033
'0:00.956',-0.035,-1.111,-1.076,0.572,0.521,-1.093,0.178,0.301,0.607,0.189,-0.295,0.082,-0.299,-0.607,-0.034
'0:00.957',-0.033,-1.109,-1.077,0.571,0.522,-1.093,0.178,0.300,0.606,0.189,-0.296,0.084,-0.297,-0.607,-0.035
'0:00.958',-0.029,-1.105,-1.076,0.567,0.524,-1.091,0.175,0.302,0.608,0.190,-0.296,0.082,-0.297,-0.602,-0.030
'0:00.959',-0.027,-1.106,-1.079,0.566,0.526,-1.093,0.177,0.303,0.610,0.192,-0.293,0.085,-0.296,-0.601,-0.032
'0:00.960',-0.030,-1.104,-1.074,0.567,0.522,-1.089,0.178,0.305,0.613,0.195,-0.292,0.086,-0.294,-0.605,-0.044
'0:00.961',-0.030,-1.100,-1.070,0.565,0.520,-1.085,0.177,0.309,0.616,0.198,-0.291,0.086,-0.294,-0.602,-0.041
'0:00.962',-0.034,-1.101,-1.067,0.567,0.517,-1.085,0.177,0.309,0.618,0.197,-0.291,0.086,-0.294,-0.601,-0.039
'0:00.963',-0.037,-1.105,-1.067,0.571,0.515,-1.086,0.177,0.310,0.620,0.197,-0.291,0.085,-0.292,-0.601,-0.039
'0:00.964',-0.035,-1.103,-1.068,0.569,0.516,-1.085,0.177,0.311,0.621,0.198,-0.291,0.088,-0.290,-0.596,-0.041
'0:00.965',-0.031,-1.099,-1.068,0.565,0.519,-1.083,0.175,0.314,0.624,0.201,-0.290,0.090,-0.287,-0.592,-0.042
'0:00.966',-0.025,-1.096,-1.071,0.560,0.523,-1.083,0.176,0.317,0.629,0.203,-0.287,0.093,-0.285,-0.593,-0.042
'0:00.967',-0.023,-1.091,-1.067,0.556,0.522,-1.079,0.176,0.319,0.633,0.206,-0.284,0.095,-0.284,-0.590,-0.045
'0:00.968',-0.018,-1.086,-1.069,0.551,0.525,-1.077,0.178,0.323,0.634,0.209,-0.282,0.097,-0.283,-0.585,-0.045
'0:00.969',-0.017,-1.087,-1.071,0.552,0.527,-1.079,0.179,0.327,0.639,0.212,-0.281,0.099,-0.281,-0.585,-0.049
'0:00.970',-0.022,-1.091,-1.069,0.557,0.523,-1.081,0.177,0.329,0.641,0.213,-0.281,0.100,-0.279,-0.587,-0.053
'0:00.971',-0.023,-1.089,-1.066,0.555,0.521,-1.077,0.177,0.328,0.642,0.215,-0.279,0.102,-0.279,-0.586,-0.056
'0:00.972',-0.019,-1.084,-1.065,0.551,0.523,-1.075,0.178,0.331,0.646,0.216,-0.278,0.101,-0.278,-0.585,-0.059
'0:00.973',-0.017,-1.083,-1.066,0.549,0.525,-1.075,0.178,0.335,0.649,0.221,-0.277,0.104,-0.277,-0.585,-0.059
'0:00.974',-0.018,-1.082,-1.064,0.549,0.523,-1.073,0.182,0.341,0.656,0.226,-0.274,0.110,-0.275,-0.587,-0.058
'0:00.975',-0.021,-1.083,-1.062,0.551,0.520,-1.072,0.184,0.344,0.661,0.229,-0.273,0.112,-0.274,-0.586,-0.059
'0:00.976',-0.020,-1.081,-1.061,0.550,0.521,-1.071,0.182,0.346,0.663,0.231,-0.271,0.114,-0.271,-0.582,-0.056
'0:00.977',-0.020,-1.083,-1.062,0.551,0.521,-1.073,0.182,0.349,0.665,0.232,-0.270,0.116,-0.269,-0.581,-0.053
'0:00.978',-0.020,-1.081,-1.060,0.550,0.520,-1.071,0.183,0.352,0.668,0.235,-0.268,0.117,-0.268,-0.579,-0.055
'0:00.979',-0.019,-1.073,-1.054,0.546,0.518,-1.064,0.183,0.355,0.670,0.237,-0.266,0.119,-0.265,-0.575,-0.058
'0:00.980',-0.025,-1.075,-1.050,0.549,0.513,-1.062,0.184,0.356,0.675,0.240,-0.266,0.122,-0.264,-0.577,-0.060
'0:00.981',-0.027,-1.077,-1.050,0.551,0.511,-1.063,0.183,0.360,0.678,0.244,-0.266,0.123,-0.262,-0.578,-0.059
'0:00.982',-0.026,-1.075,-1.048,0.550,0.511,-1.062,0.185,0.363,0.681,0.246,-0.264,0.126,-0.261,-0.576,-0.062
'0:00.983',-0.025,-1.073,-1.048,0.549,0.511,-1.060,0.185,0.364,0.683,0.246,-0.263,0.127,-0.257,-0.569,-0.064
'0:00.984',-0.022,-1.069,-1.046,0.545,0.512,-1.057,0.183,0.369,0.688,0.249,-0.261,0.130,-0.253,-0.563,-0.065
'0:00.985',-0.019,-1.067,-1.048,0.543,0.514,-1.058,0.186,0.373,0.693,0.253,-0.259,0.133,-0.251,-0.565,-0.068
'0:00.986',-0.019,-1.066,-1.046,0.542,0.514,-1.056,0.186,0.377,0.696,0.256,-0.256,0.135,-0.250,-0.566,-0.070
'0:00.987',-0.022,-1.062,-1.040,0.542,0.509,-1.052,0.185,0.380,0.703,0.260,-0.253,0.138,-0.245,-0.565,-0.070
'0:00.988',-0.016,-1.056,-1.040,0.535,0.512,-1.048,0.186,0.385,0.709,0.266,-0.248,0.142,-0.238,-0.560,-0.072
'0:00.989',-0.014,-1.056,-1.042,0.534,0.514,-1.049,0.186,0.389,0.711,0.268,-0.245,0.145,-0.239,-0.557,-0.075
'0:00.990',-0.015,-1.058,-1.044,0.536,0.515,-1.051,0.187,0.391,0.714,0.268,-0.246,0.146,-0.240,-0.555,-0.079
'0:00.991',-0.013,-1.058,-1.046,0.535,0.517,-1.052,0.188,0.396,0.719,0.273,-0.243,0.148,-0.236,-0.553,-0.080
'0:00.992',-0.013,-1.056,-1.044,0.534,0.516,-1.050,0.190,0.398,0.723,0.276,-0.241,0.153,-0.232,-0.553,-0.082
'0:00.993',-0.009,-1.048,-1.038,0.528,0.515,-1.044,0.190,0.402,0.727,0.282,-0.237,0.157,-0.229,-0.548,-0.084
'0:00.994',-0.006,-1.042,-1.035,0.523,0.514,-1.038,0.190,0.408,0.733,0.288,-0.232,0.162,-0.225,-0.545,-0.085
'0:00.995',-0.005,-1.040,-1.034,0.522,0.514,-1.036,0.192,0.411,0.740,0.292,-0.231,0.164,-0.222,-0.547,-0.087
'0:00.996',-0.005,-1.042,-1.037,0.523,0.516,-1.040,0.192,0.416,0.744,0.295,-0.229,0.165,-0.221,-0.550,-0.090
'0:00.997',-0.003,-1.040,-1.037,0.521,0.517,-1.038,0.191,0.421,0.748,0.299,-0.226,0.169,-0.216,-0.550,-0.090
'0:00.998',-0.001,-1.032,-1.031,0.516,0.515,-1.031,0.191,0.425,0.754,0.304,-0.224,0.174,-0.212,-0.539,-0.090
'0:00.999',0.004,-1.024,-1.028,0.510,0.516,-1.026,0.192,0.428,0.760,0.309,-0.220,0.178,-0.209,-0.533,-0.093
'0:01.000',0.005,-1.020,-1.026,0.507,0.516,-1.023,0.194,0.434,0.763,0.316,-0.215,0.182,-0.205,-0.536,-0.095
'0:01.001',0.003,-1.018,-1.021,0.507,0.512,-1.020,0.196,0.439,0.768,0.320,-0.214,0.186,-0.203,-0.538,-0.098
'0:01.002',0.002,-1.017,-1.018,0.507,0.510,-1.018,0.196,0.442,0.774,0.324,-0.212,0.189,-0.200,-0.539,-0.100
'0:01.003',-0.001,-1.015,-1.014,0.507,0.507,-1.014,0.193,0.445,0.778,0.326,-0.209,0.192,-0.196,-0.534,-0.104
'0:01.004',-0.001,-1.014,-1.014,0.507,0.506,-1.014,0.192,0.447,0.784,0.329,-0.205,0.197,-0.192,-0.531,-0.111
'0:01.005',0.002,-1.012,-1.014,0.505,0.508,-1.013,0.190,0.451,0.788,0.333,-0.202,0.200,-0.188,-0.529,-0.113
'0:01.006',0.001,-1.006,-1.008,0.502,0.504,-1.007,0.190,0.454,0.792,0.338,-0.199,0.203,-0.185,-0.523,-0.112
'0:01.007',0.004,-1.004,-1.007,0.500,0.505,-1.005,0.193,0.459,0.799,0.342,-0.195,0.207,-0.183,-0.521,-0.115
'0:01.008',0.005,-1.001,-1.006,0.498,0.506,-1.004,0.195,0.465,0.805,0.348,-0.189,0.214,-0.178,-0.519,-0.117
'0:01.009',0.005,-0.997,-1.002,0.495,0.504,-1.000,0.194,0.471,0.812,0.355,-0.183,0.221,-0.174,-0.512,-0.116
'0:01.010',0.004,-0.992,-0.997,0.493,0.501,-0.995,0.194,0.472,0.817,0.360,-0.180,0.225,-0.169,-0.506,-0.118
'0:01.011',0.006,-0.989,-0.995,0.490,0.501,-0.992,0.194,0.476,0.821,0.364,-0.176,0.230,-0.164,-0.503,-0.122
'0:01.012',0.009,-0.986,-0.994,0.488,0.501,-0.990,0.193,0.480,0.827,0.369,-0.172,0.234,-0.161,-0.505,-0.126
'0:01.013',0.009,-0.982,-0.991,0.486,0.500,-0.986,0.196,0.487,0.834,0.379,-0.168,0.239,-0.159,-0.505,-0.128
'0:01.014',0.013,-0.977,-0.990,0.481,0.502,-0.983,0.198,0.493,0.840,0.385,-0.162,0.245,-0.154,-0.504,-0.129
'0:01.015',0.015,-0.972,-0.986,0.478,0.501,-0.979,0.197,0.494,0.845,0.391,-0.160,0.248,-0.148,-0.497,-0.132
'0:01.016',0.017,-0.968,-0.985,0.475,0.500,-0.976,0.195,0.497,0.849,0.394,-0.153,0.255,-0.142,-0.491,-0.134
'0:01.017',0.021,-0.964,-0.984,0.471,0.502,-0.974,0.193,0.499,0.852,0.398,-0.149,0.258,-0.138,-0.487,-0.134
'0:01.018',0.021,-0.959,-0.980,0.469,0.500,-0.969,0.194,0.503,0.857,0.403,-0.144,0.264,-0.132,-0.482,-0.136
'0:01.019',0.022,-0.952,-0.974,0.465,0.498,-0.963,0.194,0.508,0.863,0.408,-0.140,0.270,-0.128,-0.479,-0.138
'0:01.020',0.022,-0.948,-0.971,0.463,0.496,-0.960,0.192,0.511,0.867,0.415,-0.137,0.275,-0.126,-0.477,-0.141
'0:01.021',0.022,-0.945,-0.968,0.461,0.495,-0.956,0.190,0.513,0.871,0.420,-0.132,0.280,-0.120,-0.474,-0.144
'0:01.022',0.024,-0.943,-0.966,0.460,0.495,-0.955,0.191,0.516,0.875,0.424,-0.128,0.284,-0.116,-0.472,-0.147
'0:01.023',0.022,-0.943,-0.964,0.460,0.493,-0.954,0.190,0.517,0.879,0.428,-0.123,0.289,-0.110,-0.469,-0.150
'0:01.024',0.024,-0.939,-0.963,0.457,0.494,-0.951,0.187,0.519,0.885,0.432,-0.120,0.292,-0.104,-0.463,-0.150
'0:01.025',0.025,-0.935,-0.961,0.455,0.493,-0.948,0.187,0.523,0.890,0.437,-0.115,0.299,-0.100,-0.463,-0.152
'0:01.026',0.029,-0.927,-0.957,0.449,0.493,-0.942,0.187,0.527,0.893,0.446,-0.108,0.307,-0.094,-0.459,-0.154
'0:01.027',0.035,-0.920,-0.955,0.443,0.495,-0.938,0.185,0.529,0.898,0.451,-0.105,0.311,-0.089,-0.451,-0.157
'0:01.028',0.031,-0.918,-0.949,0.443,0.490,-0.933,0.184,0.531,0.902,0.453,-0.101,0.318,-0.085,-0.451,-0.158
'0:01.029',0.030,-0.917,-0.948,0.443,0.489,-0.932,0.184,0.533,0.906,0.459,-0.095,0.324,-0.079,-0.448,-0.159
'0:01.030',0.032,-0.910,-0.942,0.439,0.487,-0.926,0.185,0.535,0.909,0.463,-0.091,0.329,-0.073,-0.439,-0.160
'0:01.031',0.032,-0.907,-0.940,0.437,0.486,-0.923,0.184,0.539,0.914,0.468,-0.086,0.335,-0.070,-0.434,-0.160
'0:01.032',0.033,-0.905,-0.939,0.436,0.486,-0.922,0.183,0.542,0.919,0.473,-0.081,0.341,-0.065,-0.434,-0.161
'0:01.033',0.038,-0.894,-0.932,0.428,0.485,-0.913,0.182,0.546,0.923,0.479,-0.076,0.347,-0.060,-0.429,-0.162
'0:01.034',0.046,-0.889,-0.935,0.421,0.491,-0.912,0.181,0.547,0.928,0.485,-0.070,0.353,-0.054,-0.428,-0.165
'0:01.035',0.050,-0.881,-0.931,0.415,0.491,-0.906,0.180,0.548,0.930,0.491,-0.065,0.358,-0.050,-0.424,-0.167
'0:01.036',0.051,-0.877,-0.929,0.412,0.490,-0.903,0.178,0.551,0.935,0.495,-0.061,0.363,-0.045,-0.420,-0.168
'0:01.037',0.050,-0.879,-0.929,0.414,0.489,-0.904,0.179,0.552,0.940,0.499,-0.054,0.369,-0.042,-0.422,-0.170
'0:01.038',0.045,-0.875,-0.919,0.414,0.482,-0.897,0.181,0.554,0.941,0.505,-0.051,0.375,-0.040,-0.421,-0.170
'0:01.039',0.048,-0.867,-0.914,0.409,0.481,-0.890,0.177,0.552,0.943,0.509,-0.046,0.379,-0.035,-0.416,-0.171
'0:01.040',0.054,-0.858,-0.912,0.402,0.483,-0.885,0.175,0.551,0.945,0.512,-0.043,0.381,-0.032,-0.411,-0.172
'0:01.041',0.059,-0.852,-0.910,0.397,0.484,-0.881,0.172,0.553,0.945,0.515,-0.041,0.388,-0.026,-0.406,-0.172
'0:01.042',0.060,-0.849,-0.908,0.394,0.484,-0.878,0.170,0.552,0.947,0.519,-0.037,0.391,-0.021,-0.402,-0.172
'0:01.043',0.057,-0.849,-0.905,0.396,0.481,-0.877,0.169,0.551,0.948,0.521,-0.034,0.393,-0.018,-0.398,-0.173
'0:01.044',0.054,-0.847,-0.901,0.396,0.477,-0.874,0.167,0.550,0.947,0.521,-0.031,0.396,-0.013,-0.396,-0.177
'0:01.045',0.053,-0.845,-0.898,0.395,0.476,-0.871,0.166,0.549,0.951,0.525,-0.025,0.402,-0.009,-0.398,-0.181
'0:01.046',0.055,-0.842,-0.897,0.393,0.476,-0.870,0.165,0.548,0.952,0.528,-0.021,0.406,-0.006,-0.396,-0.181
'0:01.047',0.057,-0.843,-0.899,0.393,0.478,-0.871,0.165,0.548,0.953,0.530,-0.018,0.408,-0.004,-0.392,-0.174
'0:01.048',0.056,-0.842,-0.898,0.393,0.477,-0.870,0.166,0.546,0.954,0.533,-0.013,0.413,-0.003,-0.390,-0.170
'0:01.049',0.056,-0.833,-0.889,0.389,0.472,-0.861,0.163,0.545,0.954,0.537,-0.009,0.417,0.002,-0.384,-0.174
'0:01.050',0.056,-0.830,-0.885,0.387,0.471,-0.858,0.161,0.543,0.956,0.540,-0.004,0.421,0.005,-0.379,-0.175
'0:01.051',0.053,-0.830,-0.883,0.388,0.469,-0.857,0.159,0.542,0.953,0.539,-0.001,0.424,0.008,-0.378,-0.176
'0:01.052',0.053,-0.824,-0.877,0.386,0.465,-0.851,0.158,0.539,0.952,0.539,-0.001,0.427,0.011,-0.376,-0.178
'0:01.053',0.058,-0.818,-0.875,0.380,0.467,-0.847,0.156,0.538,0.953,0.544,0.006,0.434,0.015,-0.374,-0.183
'0:01.054',0.059,-0.819,-0.877,0.380,0.468,-0.848,0.156,0.539,0.953,0.549,0.011,0.439,0.017,-0.378,-0.183
'0:01.055',0.056,-0.819,-0.874,0.381,0.466,-0.846,0.155,0.535,0.952,0.550,0.013,0.441,0.019,-0.373,-0.179
'0:01.056',0.054,-0.813,-0.868,0.379,0.462,-0.841,0.152,0.530,0.949,0.549,0.017,0.443,0.022,-0.363,-0.172
'0:01.057',0.053,-0.812,-0.866,0.380,0.460,-0.839,0.149,0.526,0.948,0.553,0.021,0.445,0.025,-0.359,-0.163
'0:01.058',0.055,-0.811,-0.867,0.378,0.461,-0.839,0.147,0.523,0.947,0.553,0.025,0.448,0.028,-0.357,-0.160
'0:01.059',0.058,-0.805,-0.862,0.373,0.460,-0.834,0.142,0.518,0.945,0.554,0.028,0.451,0.029,-0.353,-0.160
'0:01.060',0.060,-0.801,-0.861,0.370,0.461,-0.831,0.141,0.513,0.940,0.557,0.029,0.453,0.031,-0.352,-0.160
'0:01.061',0.062,-0.799,-0.862,0.368,0.463,-0.831,0.140,0.511,0.938,0.558,0.033,0.456,0.033,-0.355,-0.161
'0:01.062',0.062,-0.795,-0.858,0.366,0.460,-0.826,0.137,0.507,0.936,0.559,0.035,0.458,0.035,-0.352,-0.161
'0:01.063',0.062,-0.792,-0.855,0.365,0.459,-0.824,0.135,0.500,0.933,0.557,0.036,0.459,0.036,-0.346,-0.160
'0:01.064',0.059,-0.795,-0.854,0.368,0.456,-0.825,0.131,0.493,0.929,0.554,0.037,0.458,0.038,-0.346,-0.157
'0:01.065',0.052,-0.797,-0.850,0.372,0.452,-0.824,0.128,0.487,0.923,0.555,0.037,0.459,0.038,-0.348,-0.152
'0:01.066',0.054,-0.795,-0.849,0.370,0.452,-0.822,0.124,0.481,0.919,0.554,0.036,0.459,0.037,-0.346,-0.149
'0:01.067',0.058,-0.794,-0.852,0.368,0.455,-0.823,0.123,0.478,0.916,0.552,0.039,0.459,0.041,-0.346,-0.146
'0:01.068',0.058,-0.794,-0.853,0.368,0.456,-0.824,0.122,0.473,0.913,0.551,0.040,0.459,0.040,-0.344,-0.145
'0:01.069',0.057,-0.797,-0.854,0.370,0.456,-0.826,0.118,0.467,0.909,0.549,0.038,0.459,0.039,-0.343,-0.144
'0:01.070',0.053,-0.801,-0.855,0.374,0.454,-0.828,0.117,0.460,0.904,0.546,0.039,0.460,0.039,-0.344,-0.141
'0:01.071',0.048,-0.803,-0.851,0.378,0.450,-0.827,0.116,0.455,0.899,0.545,0.038,0.459,0.036,-0.344,-0.138
'0:01.072',0.045,-0.805,-0.851,0.380,0.448,-0.828,0.118,0.451,0.894,0.544,0.038,0.458,0.034,-0.347,-0.137
'0:01.073',0.047,-0.808,-0.855,0.380,0.451,-0.831,0.118,0.446,0.889,0.543,0.038,0.458,0.030,-0.356,-0.137
'0:01.074',0.050,-0.806,-0.857,0.378,0.454,-0.832,0.117,0.442,0.886,0.542,0.036,0.457,0.028,-0.361,-0.135
'0:01.075',0.050,-0.810,-0.860,0.380,0.455,-0.835,0.117,0.436,0.879,0.537,0.035,0.453,0.024,-0.367,-0.133
'0:01.076',0.046,-0.816,-0.863,0.385,0.455,-0.839,0.114,0.429,0.873,0.532,0.029,0.449,0.020,-0.368,-0.128
'0:01.077',0.045,-0.819,-0.865,0.387,0.455,-0.842,0.116,0.423,0.866,0.529,0.026,0.446,0.019,-0.365,-0.117
'0:01.078',0.044,-0.822,-0.866,0.389,0.456,-0.844,0.113,0.417,0.860,0.524,0.025,0.442,0.018,-0.373,-0.118
'0:01.079',0.043,-0.824,-0.867,0.391,0.455,-0.846,0.107,0.409,0.851,0.518,0.019,0.438,0.011,-0.380,-0.122
'0:01.080',0.044,-0.831,-0.875,0.393,0.460,-0.853,0.110,0.404,0.844,0.513,0.013,0.432,0.001,-0.382,-0.114
'0:01.081',0.045,-0.836,-0.881,0.395,0.464,-0.859,0.111,0.399,0.838,0.508,0.007,0.426,-0.004,-0.386,-0.107
'0:01.082',0.045,-0.838,-0.883,0.397,0.464,-0.861,0.110,0.392,0.829,0.500,0.004,0.422,-0.008,-0.390,-0.105
'0:01.083',0.042,-0.845,-0.886,0.402,0.465,-0.866,0.107,0.384,0.820,0.491,-0.004,0.414,-0.015,-0.392,-0.101
'0:01.084',0.041,-0.849,-0.890,0.404,0.466,-0.870,0.105,0.375,0.808,0.481,-0.011,0.406,-0.019,-0.396,-0.097
'0:01.085',0.039,-0.852,-0.891,0.406,0.466,-0.872,0.106,0.368,0.800,0.476,-0.017,0.399,-0.026,-0.402,-0.096
'0:01.086',0.035,-0.861,-0.896,0.413,0.466,-0.879,0.108,0.363,0.794,0.469,-0.022,0.392,-0.034,-0.410,-0.092
'0:01.087',0.032,-0.869,-0.900,0.418,0.466,-0.885,0.110,0.354,0.781,0.460,-0.031,0.385,-0.041,-0.416,-0.089
'0:01.088',0.025,-0.877,-0.902,0.425,0.464,-0.889,0.110,0.347,0.774,0.453,-0.036,0.377,-0.048,-0.419,-0.086
'0:01.089',0.024,-0.884,-0.908,0.430,0.466,-0.896,0.107,0.342,0.765,0.443,-0.042,0.368,-0.055,-0.425,-0.083
'0:01.090',0.025,-0.893,-0.918,0.434,0.472,-0.906,0.106,0.334,0.754,0.433,-0.051,0.360,-0.061,-0.428,-0.080
'0:01.091',0.023,-0.904,-0.927,0.441,0.475,-0.916,0.109,0.328,0.747,0.425,-0.056,0.353,-0.069,-0.434,-0.073
'0:01.092',0.024,-0.909,-0.932,0.442,0.478,-0.920,0.110,0.322,0.736,0.417,-0.062,0.346,-0.075,-0.440,-0.070
'0:01.093',0.025,-0.910,-0.934,0.443,0.480,-0.922,0.112,0.318,0.729,0.412,-0.069,0.341,-0.082,-0.448,-0.068
'0:01.094',0.021,-0.915,-0.936,0.447,0.478,-0.926,0.113,0.314,0.722,0.406,-0.074,0.334,-0.088,-0.455,-0.066
'0:01.095',0.018,-0.925,-0.944,0.453,0.481,-0.934,0.114,0.307,0.714,0.398,-0.081,0.325,-0.095,-0.459,-0.062
'0:01.096',0.017,-0.933,-0.951,0.458,0.484,-0.942,0.114,0.301,0.705,0.390,-0.086,0.318,-0.102,-0.462,-0.055
'0:01.097',0.015,-0.941,-0.956,0.463,0.485,-0.948,0.112,0.296,0.697,0.380,-0.095,0.310,-0.107,-0.467,-0.051
'0:01.098',0.010,-0.946,-0.956,0.468,0.483,-0.951,0.113,0.290,0.689,0.371,-0.103,0.302,-0.117,-0.473,-0.047
'0:01.099',0.007,-0.951,-0.958,0.471,0.482,-0.954,0.116,0.284,0.680,0.363,-0.109,0.295,-0.124,-0.479,-0.040
'0:01.100',0.005,-0.956,-0.962,0.475,0.483,-0.959,0.116,0.279,0.672,0.355,-0.116,0.287,-0.131,-0.485,-0.038
'0:01.101',0.005,-0.961,-0.966,0.477,0.486,-0.963,0.117,0.276,0.665,0.350,-0.120,0.282,-0.136,-0.491,-0.038
'0:01.102',0.004,-0.971,-0.975,0.482,0.490,-0.973,0.120,0.273,0.659,0.343,-0.125,0.276,-0.143,-0.498,-0.037
'0:01.103',-0.002,-0.980,-0.978,0.490,0.488,-0.979,0.119,0.266,0.652,0.333,-0.133,0.266,-0.151,-0.507,-0.034
'0:01.104',-0.002,-0.983,-0.981,0.492,0.490,-0.982,0.118,0.261,0.646,0.324,-0.139,0.259,-0.155,-0.509,-0.029
'0:01.105',0.002,-0.985,-0.987,0.491,0.494,-0.986,0.119,0.257,0.637,0.317,-0.144,0.254,-0.161,-0.507,-0.026
'0:01.106',-0.002,-0.992,-0.990,0.496,0.494,-0.991,0.121,0.253,0.629,0.310,-0.152,0.246,-0.169,-0.510,-0.021
'0:01.107',-0.011,-0.998,-0.987,0.503,0.488,-0.993,0.122,0.248,0.624,0.303,-0.159,0.240,-0.175,-0.515,-0.015
